OOIBase32 Version 2.0.6.5 Data File
++++++++++++++++++++++++++++++++++++
Date: 11-17-2016, 11:09:35
User: Valued Ocean Optics Customer
Spectrometer Serial Number: USB4C01507
Spectrometer Channel: Master
Integration Time (msec): 49
Spectra Averaged: 25
Boxcar Smoothing: 5
Correct for Electrical Dark: Enabled
Time Normalized: Disabled
Dual-beam Reference: Disabled
Reference Channel: Master
Temperature: Not acquired
Spectrometer Type: S4000
ADC Type: USB4000
Number of Pixels in File: 3648
Graph Title: 
>>>>>Begin Spectral Data<<<<<
178.53	1607.516
178.74	2218.414
178.96	96.474
179.18	-6.867
179.39	845.276
179.61	23.321
179.82	144.391
180.04	-120.786
180.25	110.771
180.47	-164.467
180.69	93.710
180.90	114.461
181.12	-397.234
181.33	165.376
181.55	-40.259
181.76	-7354.117
181.98	104.294
182.20	303.494
182.41	27.384
182.63	302.591
182.84	27.679
183.06	13.939
183.27	22.941
183.49	31.410
183.71	36.879
183.92	27.626
184.14	11.512
184.35	23.173
184.57	16.752
184.78	13.337
185.00	16.935
185.21	20.548
185.43	35.041
185.65	25.321
185.86	10.038
186.08	8.980
186.29	13.962
186.51	20.059
186.72	18.228
186.94	16.875
187.15	21.041
187.37	27.706
187.58	28.876
187.80	27.620
188.02	28.252
188.23	23.007
188.45	20.122
188.66	21.880
188.88	28.136
189.09	33.520
189.31	38.225
189.52	34.340
189.74	27.213
189.95	29.010
190.17	28.280
190.38	25.066
190.60	32.998
190.82	37.799
191.03	27.363
191.25	23.293
191.46	14.538
191.68	9.522
191.89	13.637
192.11	20.646
192.32	10.069
192.54	5.868
192.75	19.881
192.97	19.225
193.18	18.029
193.40	24.344
193.61	23.593
193.83	26.577
194.04	25.272
194.26	29.240
194.48	25.533
194.69	30.984
194.91	26.935
195.12	25.137
195.34	24.855
195.55	24.876
195.77	21.658
195.98	23.453
196.20	20.169
196.41	19.978
196.63	19.681
196.84	20.881
197.06	22.011
197.27	32.215
197.49	29.038
197.70	33.129
197.92	31.888
198.13	41.593
198.35	34.066
198.56	30.883
198.78	31.076
198.99	29.122
199.21	28.146
199.42	25.138
199.64	26.131
199.85	22.076
200.07	20.235
200.28	23.240
200.50	12.310
200.71	18.960
200.93	25.427
201.14	27.042
201.36	28.500
201.57	31.757
201.79	32.645
202.00	24.654
202.22	24.397
202.43	23.785
202.65	16.825
202.86	20.869
203.08	19.454
203.29	18.382
203.51	15.592
203.72	10.303
203.94	9.131
204.15	7.142
204.37	11.826
204.58	13.556
204.80	13.160
205.01	17.332
205.22	13.779
205.44	15.766
205.65	12.336
205.87	11.734
206.08	13.772
206.30	12.777
206.51	13.117
206.73	9.416
206.94	7.166
207.16	8.223
207.37	8.517
207.59	10.076
207.80	5.402
208.02	7.255
208.23	8.370
208.45	5.029
208.66	4.150
208.88	3.248
209.09	5.743
209.30	6.421
209.52	3.672
209.73	3.674
209.95	4.024
210.16	6.053
210.38	8.658
210.59	9.540
210.81	9.250
211.02	10.451
211.24	11.156
211.45	8.343
211.66	11.363
211.88	12.879
212.09	12.563
212.31	14.040
212.52	13.609
212.74	9.402
212.95	8.047
213.17	9.154
213.38	8.933
213.60	11.554
213.81	13.404
214.02	11.066
214.24	11.005
214.45	7.579
214.67	6.151
214.88	4.572
215.10	4.455
215.31	4.443
215.53	3.606
215.74	5.649
215.95	5.310
216.17	4.023
216.38	3.590
216.60	2.690
216.81	5.870
217.03	6.507
217.24	7.860
217.45	10.267
217.67	12.149
217.88	13.652
218.10	12.389
218.31	13.605
218.53	14.137
218.74	13.069
218.95	9.758
219.17	7.238
219.38	7.754
219.60	10.334
219.81	10.265
220.03	9.154
220.24	9.514
220.45	8.991
220.67	7.468
220.88	7.601
221.10	7.790
221.31	9.587
221.53	10.209
221.74	8.356
221.95	6.587
222.17	5.070
222.38	4.799
222.60	3.924
222.81	3.560
223.02	3.379
223.24	2.582
223.45	3.457
223.67	3.065
223.88	3.879
224.09	4.619
224.31	4.470
224.52	5.731
224.74	4.639
224.95	5.134
225.16	4.762
225.38	4.068
225.59	4.266
225.81	3.507
226.02	3.416
226.23	2.665
226.45	2.515
226.66	2.333
226.88	2.505
227.09	3.112
227.30	2.787
227.52	3.024
227.73	3.080
227.95	3.047
228.16	3.052
228.37	2.981
228.59	3.090
228.80	3.078
229.02	3.085
229.23	3.063
229.44	3.054
229.66	3.033
229.87	2.995
230.08	2.976
230.30	2.990
230.51	3.068
230.73	3.193
230.94	3.046
231.15	2.934
231.37	2.926
231.58	2.619
231.80	2.714
232.01	2.850
232.22	2.814
232.44	2.840
232.65	2.763
232.86	2.516
233.08	2.403
233.29	2.550
233.51	3.019
233.72	3.006
233.93	3.093
234.15	2.653
234.36	2.555
234.57	2.583
234.79	2.714
235.00	2.767
235.21	3.206
235.43	3.180
235.64	3.095
235.86	2.823
236.07	2.746
236.28	2.554
236.50	2.437
236.71	2.832
236.92	3.131
237.14	3.219
237.35	3.345
237.56	3.337
237.78	3.370
237.99	3.382
238.20	3.420
238.42	3.720
238.63	3.868
238.84	4.369
239.06	4.201
239.27	3.849
239.48	3.749
239.70	3.553
239.91	3.086
240.13	3.086
240.34	2.948
240.55	2.916
240.77	2.772
240.98	2.709
241.19	2.662
241.41	2.372
241.62	2.293
241.83	2.280
242.05	2.352
242.26	2.470
242.47	2.452
242.69	2.549
242.90	2.620
243.11	2.594
243.33	2.633
243.54	2.577
243.75	2.767
243.97	2.814
244.18	2.950
244.39	2.855
244.61	2.686
244.82	2.744
245.03	2.585
245.24	2.343
245.46	2.408
245.67	2.457
245.88	2.441
246.10	2.369
246.31	2.340
246.52	2.235
246.74	2.233
246.95	2.205
247.16	2.180
247.38	2.160
247.59	2.209
247.80	2.198
248.02	2.191
248.23	2.180
248.44	2.251
248.66	2.297
248.87	2.379
249.08	2.461
249.29	2.559
249.51	2.635
249.72	2.777
249.93	2.803
250.15	2.857
250.36	2.656
250.57	2.496
250.79	2.491
251.00	2.513
251.21	2.381
251.42	2.351
251.64	2.313
251.85	2.378
252.06	2.426
252.28	2.386
252.49	2.372
252.70	2.479
252.91	2.590
253.13	2.623
253.34	2.629
253.55	2.716
253.77	2.662
253.98	2.856
254.19	2.729
254.40	2.607
254.62	2.635
254.83	2.547
255.04	2.563
255.26	2.600
255.47	2.276
255.68	2.231
255.89	2.345
256.11	2.356
256.32	2.221
256.53	2.458
256.75	2.535
256.96	2.476
257.17	2.569
257.38	2.662
257.60	2.676
257.81	2.698
258.02	2.575
258.23	2.374
258.45	2.287
258.66	2.307
258.87	2.153
259.09	2.112
259.30	2.128
259.51	2.104
259.72	2.036
259.94	2.000
260.15	1.973
260.36	2.035
260.57	2.065
260.79	2.081
261.00	2.076
261.21	2.104
261.42	2.150
261.64	2.131
261.85	2.092
262.06	2.175
262.27	2.256
262.49	2.370
262.70	2.291
262.91	2.365
263.12	2.494
263.34	2.497
263.55	2.514
263.76	2.449
263.97	2.499
264.19	2.564
264.40	2.525
264.61	2.521
264.82	2.543
265.04	2.656
265.25	2.447
265.46	2.346
265.67	2.366
265.88	2.338
266.10	2.312
266.31	2.276
266.52	2.309
266.73	2.364
266.95	2.356
267.16	2.243
267.37	2.150
267.58	2.227
267.80	2.229
268.01	2.120
268.22	2.111
268.43	2.151
268.64	2.150
268.86	2.112
269.07	1.950
269.28	1.852
269.49	1.869
269.71	1.890
269.92	1.751
270.13	1.868
270.34	1.913
270.55	1.921
270.77	1.960
270.98	1.952
271.19	2.024
271.40	2.077
271.61	2.061
271.83	2.098
272.04	2.027
272.25	2.117
272.46	1.952
272.68	1.969
272.89	1.965
273.10	1.906
273.31	1.865
273.52	1.820
273.74	1.810
273.95	1.816
274.16	1.845
274.37	1.816
274.58	1.834
274.80	1.935
275.01	1.912
275.22	1.956
275.43	2.054
275.64	2.192
275.86	2.231
276.07	2.151
276.28	2.259
276.49	2.241
276.70	2.244
276.91	2.214
277.13	2.131
277.34	2.178
277.55	2.214
277.76	2.141
277.97	2.063
278.19	2.089
278.40	2.205
278.61	2.092
278.82	2.092
279.03	2.113
279.24	2.066
279.46	2.160
279.67	2.222
279.88	1.972
280.09	1.944
280.30	2.013
280.52	1.913
280.73	1.931
280.94	2.022
281.15	1.983
281.36	2.107
281.57	2.128
281.79	2.158
282.00	2.153
282.21	2.225
282.42	2.235
282.63	2.222
282.84	2.201
283.06	2.126
283.27	2.157
283.48	2.100
283.69	1.972
283.90	1.948
284.11	1.859
284.32	1.829
284.54	1.890
284.75	1.804
284.96	1.783
285.17	1.853
285.38	1.901
285.59	1.883
285.81	1.978
286.02	2.076
286.23	2.063
286.44	2.151
286.65	2.212
286.86	2.179
287.07	2.206
287.29	2.212
287.50	2.173
287.71	2.204
287.92	2.173
288.13	2.115
288.34	2.020
288.55	2.044
288.77	2.011
288.98	1.895
289.19	1.901
289.40	1.970
289.61	1.990
289.82	2.008
290.03	1.946
290.24	1.994
290.46	2.027
290.67	2.134
290.88	2.136
291.09	2.143
291.30	2.210
291.51	2.319
291.72	2.411
291.93	2.468
292.15	2.426
292.36	2.588
292.57	2.595
292.78	2.541
292.99	2.450
293.20	2.675
293.41	2.653
293.62	2.633
293.84	2.614
294.05	2.574
294.26	2.451
294.47	2.541
294.68	2.446
294.89	2.522
295.10	2.574
295.31	2.609
295.52	2.496
295.73	2.434
295.95	2.353
296.16	2.342
296.37	2.369
296.58	2.445
296.79	2.423
297.00	2.417
297.21	2.349
297.42	2.275
297.63	2.264
297.84	2.230
298.06	2.220
298.27	2.254
298.48	2.287
298.69	2.190
298.90	2.142
299.11	2.197
299.32	2.178
299.53	2.098
299.74	2.182
299.95	2.174
300.16	2.199
300.38	2.245
300.59	2.178
300.80	2.073
301.01	2.092
301.22	2.035
301.43	1.898
301.64	1.913
301.85	1.917
302.06	1.886
302.27	1.893
302.48	1.894
302.69	1.870
302.91	1.978
303.12	2.034
303.33	2.074
303.54	2.189
303.75	2.174
303.96	2.209
304.17	2.259
304.38	2.275
304.59	2.281
304.80	2.292
305.01	2.291
305.22	2.228
305.43	2.207
305.64	2.163
305.85	2.073
306.06	2.187
306.28	2.146
306.49	2.168
306.70	2.148
306.91	2.087
307.12	2.096
307.33	2.056
307.54	2.137
307.75	2.138
307.96	2.195
308.17	2.253
308.38	2.215
308.59	2.214
308.80	2.165
309.01	2.137
309.22	2.174
309.43	2.100
309.64	2.133
309.85	2.063
310.06	2.102
310.27	2.101
310.48	2.047
310.70	2.082
310.91	2.114
311.12	2.098
311.33	2.104
311.54	2.038
311.75	2.086
311.96	2.140
312.17	2.169
312.38	2.143
312.59	2.121
312.80	2.141
313.01	2.109
313.22	2.150
313.43	2.203
313.64	2.200
313.85	2.268
314.06	2.252
314.27	2.224
314.48	2.293
314.69	2.300
314.90	2.355
315.11	2.331
315.32	2.353
315.53	2.366
315.74	2.273
315.95	2.310
316.16	2.306
316.37	2.243
316.58	2.252
316.79	2.144
317.00	2.176
317.21	2.107
317.42	2.085
317.63	2.041
317.84	1.902
318.05	1.938
318.26	1.942
318.47	1.920
318.68	1.988
318.89	1.992
319.10	2.071
319.31	2.034
319.52	2.110
319.73	2.185
319.94	2.189
320.15	2.204
320.36	2.221
320.57	2.204
320.78	2.224
320.99	2.192
321.20	2.238
321.41	2.172
321.62	2.175
321.83	2.187
322.04	2.183
322.25	2.181
322.46	2.184
322.67	2.283
322.88	2.239
323.09	2.272
323.30	2.263
323.51	2.168
323.72	2.192
323.93	2.194
324.14	2.189
324.35	2.185
324.56	2.250
324.77	2.242
324.98	2.182
325.19	2.257
325.40	2.307
325.61	2.349
325.82	2.431
326.03	2.478
326.24	2.520
326.45	2.517
326.65	2.497
326.86	2.480
327.07	2.552
327.28	2.552
327.49	2.550
327.70	2.455
327.91	2.495
328.12	2.434
328.33	2.401
328.54	2.355
328.75	2.371
328.96	2.441
329.17	2.419
329.38	2.359
329.59	2.394
329.80	2.389
330.01	2.466
330.22	2.378
330.43	2.387
330.64	2.432
330.85	2.498
331.05	2.459
331.26	2.376
331.47	2.357
331.68	2.423
331.89	2.422
332.10	2.429
332.31	2.442
332.52	2.465
332.73	2.478
332.94	2.437
333.15	2.440
333.36	2.491
333.57	2.516
333.78	2.558
333.99	2.561
334.19	2.539
334.40	2.563
334.61	2.603
334.82	2.664
335.03	2.597
335.24	2.578
335.45	2.543
335.66	2.527
335.87	2.562
336.08	2.584
336.29	2.608
336.50	2.613
336.71	2.646
336.91	2.593
337.12	2.504
337.33	2.578
337.54	2.645
337.75	2.655
337.96	2.608
338.17	2.656
338.38	2.633
338.59	2.641
338.80	2.611
339.01	2.586
339.21	2.588
339.42	2.682
339.63	2.682
339.84	2.692
340.05	2.724
340.26	2.737
340.47	2.743
340.68	2.771
340.89	2.726
341.10	2.749
341.30	2.744
341.51	2.750
341.72	2.743
341.93	2.767
342.14	2.717
342.35	2.738
342.56	2.733
342.77	2.734
342.98	2.709
343.18	2.714
343.39	2.759
343.60	2.733
343.81	2.772
344.02	2.797
344.23	2.800
344.44	2.786
344.65	2.765
344.85	2.751
345.06	2.749
345.27	2.754
345.48	2.716
345.69	2.748
345.90	2.814
346.11	2.822
346.32	2.790
346.52	2.772
346.73	2.809
346.94	2.809
347.15	2.885
347.36	2.854
347.57	2.894
347.78	2.987
347.98	2.947
348.19	2.903
348.40	2.870
348.61	2.922
348.82	2.950
349.03	2.958
349.24	2.958
349.44	2.964
349.65	2.977
349.86	2.940
350.07	2.968
350.28	2.984
350.49	2.989
350.70	2.981
350.90	2.963
351.11	2.952
351.32	2.963
351.53	2.962
351.74	2.975
351.95	2.964
352.15	3.002
352.36	2.972
352.57	3.014
352.78	3.089
352.99	3.134
353.20	3.147
353.40	3.140
353.61	3.123
353.82	3.121
354.03	3.094
354.24	3.117
354.45	3.163
354.65	3.169
354.86	3.150
355.07	3.124
355.28	3.174
355.49	3.161
355.70	3.134
355.90	3.153
356.11	3.158
356.32	3.148
356.53	3.134
356.74	3.097
356.94	3.071
357.15	3.084
357.36	3.100
357.57	3.052
357.78	3.053
357.99	3.133
358.19	3.142
358.40	3.178
358.61	3.244
358.82	3.332
359.03	3.385
359.23	3.396
359.44	3.404
359.65	3.348
359.86	3.372
360.07	3.430
360.27	3.465
360.48	3.497
360.69	3.537
360.90	3.512
361.11	3.561
361.31	3.515
361.52	3.545
361.73	3.549
361.94	3.622
362.15	3.616
362.35	3.579
362.56	3.547
362.77	3.573
362.98	3.569
363.18	3.588
363.39	3.470
363.60	3.525
363.81	3.548
364.02	3.561
364.22	3.584
364.43	3.574
364.64	3.608
364.85	3.581
365.05	3.561
365.26	3.530
365.47	3.555
365.68	3.603
365.89	3.597
366.09	3.605
366.30	3.617
366.51	3.621
366.72	3.621
366.92	3.632
367.13	3.694
367.34	3.681
367.55	3.677
367.75	3.638
367.96	3.640
368.17	3.650
368.38	3.657
368.58	3.651
368.79	3.604
369.00	3.651
369.21	3.663
369.41	3.667
369.62	3.655
369.83	3.687
370.04	3.713
370.24	3.729
370.45	3.752
370.66	3.735
370.87	3.708
371.07	3.701
371.28	3.679
371.49	3.656
371.70	3.615
371.90	3.660
372.11	3.650
372.32	3.674
372.53	3.698
372.73	3.684
372.94	3.652
373.15	3.717
373.36	3.747
373.56	3.819
373.77	3.844
373.98	3.902
374.19	3.926
374.39	3.977
374.60	4.021
374.81	4.015
375.01	4.005
375.22	4.036
375.43	4.019
375.64	4.056
375.84	4.017
376.05	4.001
376.26	4.012
376.46	3.970
376.67	3.941
376.88	3.915
377.09	3.901
377.29	3.927
377.50	3.935
377.71	3.935
377.91	3.942
378.12	3.933
378.33	3.972
378.54	3.957
378.74	3.961
378.95	3.989
379.16	3.996
379.36	4.023
379.57	4.019
379.78	4.038
379.99	4.053
380.19	4.000
380.40	3.995
380.61	3.981
380.81	3.976
381.02	4.031
381.23	4.038
381.43	4.049
381.64	4.029
381.85	4.014
382.05	4.037
382.26	4.028
382.47	4.063
382.67	4.089
382.88	4.085
383.09	4.131
383.30	4.130
383.50	4.131
383.71	4.108
383.92	4.134
384.12	4.152
384.33	4.120
384.54	4.144
384.74	4.183
384.95	4.217
385.16	4.257
385.36	4.239
385.57	4.253
385.78	4.244
385.98	4.270
386.19	4.276
386.40	4.289
386.60	4.297
386.81	4.304
387.02	4.289
387.22	4.293
387.43	4.278
387.64	4.270
387.84	4.260
388.05	4.299
388.26	4.308
388.46	4.312
388.67	4.346
388.88	4.363
389.08	4.390
389.29	4.395
389.49	4.378
389.70	4.409
389.91	4.424
390.11	4.419
390.32	4.414
390.53	4.418
390.73	4.437
390.94	4.437
391.15	4.459
391.35	4.450
391.56	4.461
391.77	4.482
391.97	4.480
392.18	4.502
392.38	4.511
392.59	4.521
392.80	4.543
393.00	4.522
393.21	4.551
393.42	4.556
393.62	4.583
393.83	4.602
394.04	4.595
394.24	4.593
394.45	4.597
394.65	4.647
394.86	4.666
395.07	4.652
395.27	4.682
395.48	4.639
395.68	4.656
395.89	4.645
396.10	4.647
396.30	4.623
396.51	4.659
396.72	4.664
396.92	4.631
397.13	4.614
397.33	4.644
397.54	4.648
397.75	4.667
397.95	4.663
398.16	4.659
398.36	4.671
398.57	4.732
398.78	4.710
398.98	4.736
399.19	4.767
399.39	4.787
399.60	4.775
399.81	4.793
400.01	4.820
400.22	4.855
400.42	4.895
400.63	4.864
400.84	4.884
401.04	4.918
401.25	4.918
401.45	4.923
401.66	4.923
401.86	4.936
402.07	4.962
402.28	4.973
402.48	4.953
402.69	4.941
402.89	4.998
403.10	4.992
403.31	5.001
403.51	4.998
403.72	5.001
403.92	5.024
404.13	5.049
404.33	5.049
404.54	5.058
404.75	5.084
404.95	5.120
405.16	5.114
405.36	5.134
405.57	5.118
405.77	5.154
405.98	5.161
406.18	5.166
406.39	5.158
406.60	5.145
406.80	5.151
407.01	5.144
407.21	5.127
407.42	5.150
407.62	5.146
407.83	5.169
408.03	5.144
408.24	5.162
408.45	5.155
408.65	5.177
408.86	5.216
409.06	5.253
409.27	5.260
409.47	5.261
409.68	5.244
409.88	5.280
410.09	5.303
410.29	5.316
410.50	5.334
410.71	5.384
410.91	5.397
411.12	5.405
411.32	5.380
411.53	5.426
411.73	5.448
411.94	5.475
412.14	5.488
412.35	5.482
412.55	5.513
412.76	5.511
412.96	5.514
413.17	5.514
413.37	5.513
413.58	5.558
413.78	5.550
413.99	5.574
414.19	5.620
414.40	5.619
414.61	5.628
414.81	5.636
415.02	5.658
415.22	5.655
415.43	5.683
415.63	5.713
415.84	5.687
416.04	5.696
416.25	5.691
416.45	5.681
416.66	5.709
416.86	5.744
417.07	5.751
417.27	5.754
417.48	5.756
417.68	5.766
417.89	5.782
418.09	5.802
418.30	5.811
418.50	5.800
418.71	5.803
418.91	5.802
419.12	5.786
419.32	5.795
419.53	5.809
419.73	5.832
419.94	5.841
420.14	5.841
420.34	5.845
420.55	5.844
420.75	5.875
420.96	5.895
421.16	5.883
421.37	5.899
421.57	5.929
421.78	5.938
421.98	5.944
422.19	5.954
422.39	5.976
422.60	6.019
422.80	6.051
423.01	6.058
423.21	6.073
423.42	6.108
423.62	6.117
423.83	6.098
424.03	6.108
424.23	6.120
424.44	6.121
424.64	6.126
424.85	6.113
425.05	6.125
425.26	6.147
425.46	6.160
425.67	6.159
425.87	6.193
426.08	6.245
426.28	6.252
426.48	6.271
426.69	6.295
426.89	6.326
427.10	6.373
427.30	6.409
427.51	6.428
427.71	6.437
427.92	6.450
428.12	6.452
428.32	6.430
428.53	6.447
428.73	6.479
428.94	6.503
429.14	6.486
429.35	6.491
429.55	6.481
429.76	6.525
429.96	6.535
430.16	6.589
430.37	6.610
430.57	6.642
430.78	6.685
430.98	6.695
431.19	6.720
431.39	6.737
431.59	6.727
431.80	6.749
432.00	6.693
432.21	6.722
432.41	6.703
432.61	6.704
432.82	6.702
433.02	6.708
433.23	6.713
433.43	6.715
433.64	6.733
433.84	6.765
434.04	6.777
434.25	6.826
434.45	6.830
434.66	6.860
434.86	6.880
435.06	6.913
435.27	6.944
435.47	6.968
435.68	6.982
435.88	7.017
436.08	7.034
436.29	7.036
436.49	7.060
436.70	7.063
436.90	7.083
437.10	7.101
437.31	7.100
437.51	7.092
437.71	7.120
437.92	7.136
438.12	7.139
438.33	7.143
438.53	7.152
438.73	7.170
438.94	7.192
439.14	7.199
439.35	7.223
439.55	7.246
439.75	7.247
439.96	7.246
440.16	7.265
440.36	7.271
440.57	7.273
440.77	7.280
440.97	7.282
441.18	7.303
441.38	7.316
441.59	7.318
441.79	7.331
441.99	7.370
442.20	7.386
442.40	7.397
442.60	7.424
442.81	7.455
443.01	7.495
443.21	7.524
443.42	7.529
443.62	7.534
443.83	7.552
444.03	7.583
444.23	7.601
444.44	7.612
444.64	7.613
444.84	7.618
445.05	7.627
445.25	7.636
445.45	7.641
445.66	7.656
445.86	7.671
446.06	7.682
446.27	7.683
446.47	7.676
446.67	7.694
446.88	7.718
447.08	7.737
447.28	7.768
447.49	7.785
447.69	7.800
447.89	7.817
448.10	7.850
448.30	7.890
448.50	7.905
448.71	7.936
448.91	7.943
449.11	7.951
449.32	7.985
449.52	8.000
449.72	8.022
449.93	8.021
450.13	8.036
450.33	8.039
450.53	8.025
450.74	8.050
450.94	8.062
451.14	8.104
451.35	8.142
451.55	8.145
451.75	8.142
451.96	8.144
452.16	8.177
452.36	8.192
452.57	8.218
452.77	8.252
452.97	8.250
453.17	8.279
453.38	8.299
453.58	8.301
453.78	8.306
453.99	8.351
454.19	8.385
454.39	8.411
454.59	8.432
454.80	8.444
455.00	8.458
455.20	8.493
455.41	8.514
455.61	8.520
455.81	8.562
456.01	8.588
456.22	8.589
456.42	8.608
456.62	8.635
456.83	8.674
457.03	8.690
457.23	8.683
457.43	8.700
457.64	8.722
457.84	8.723
458.04	8.739
458.25	8.760
458.45	8.778
458.65	8.781
458.85	8.779
459.06	8.759
459.26	8.761
459.46	8.774
459.66	8.786
459.87	8.786
460.07	8.814
460.27	8.812
460.47	8.823
460.68	8.841
460.88	8.852
461.08	8.870
461.28	8.910
461.49	8.941
461.69	8.977
461.89	9.010
462.09	9.043
462.30	9.060
462.50	9.102
462.70	9.130
462.90	9.139
463.11	9.190
463.31	9.222
463.51	9.235
463.71	9.256
463.92	9.266
464.12	9.276
464.32	9.296
464.52	9.293
464.72	9.303
464.93	9.304
465.13	9.319
465.33	9.308
465.53	9.316
465.74	9.342
465.94	9.350
466.14	9.369
466.34	9.376
466.54	9.387
466.75	9.400
466.95	9.401
467.15	9.434
467.35	9.456
467.56	9.476
467.76	9.506
467.96	9.512
468.16	9.533
468.36	9.548
468.57	9.590
468.77	9.603
468.97	9.631
469.17	9.650
469.37	9.652
469.58	9.668
469.78	9.694
469.98	9.703
470.18	9.719
470.38	9.742
470.59	9.766
470.79	9.773
470.99	9.804
471.19	9.833
471.39	9.859
471.60	9.886
471.80	9.891
472.00	9.904
472.20	9.939
472.40	9.976
472.61	10.001
472.81	10.021
473.01	10.033
473.21	10.041
473.41	10.046
473.61	10.077
473.82	10.124
474.02	10.149
474.22	10.184
474.42	10.186
474.62	10.188
474.82	10.223
475.03	10.266
475.23	10.298
475.43	10.332
475.63	10.367
475.83	10.383
476.03	10.366
476.24	10.379
476.44	10.388
476.64	10.402
476.84	10.434
477.04	10.424
477.24	10.428
477.45	10.448
477.65	10.468
477.85	10.474
478.05	10.484
478.25	10.515
478.45	10.538
478.65	10.553
478.86	10.575
479.06	10.589
479.26	10.623
479.46	10.643
479.66	10.651
479.86	10.651
480.06	10.682
480.27	10.688
480.47	10.697
480.67	10.718
480.87	10.730
481.07	10.753
481.27	10.778
481.47	10.801
481.68	10.809
481.88	10.835
482.08	10.900
482.28	10.971
482.48	11.046
482.68	11.119
482.88	11.211
483.08	11.378
483.29	11.452
483.49	11.403
483.69	11.340
483.89	11.316
484.09	11.305
484.29	11.290
484.49	11.275
484.69	11.263
484.89	11.245
485.10	11.204
485.30	11.073
485.50	10.990
485.70	11.039
485.90	11.135
486.10	11.211
486.30	11.266
486.50	11.315
486.70	11.349
486.90	11.377
487.11	11.398
487.31	11.400
487.51	11.398
487.71	11.391
487.91	11.391
488.11	11.384
488.31	11.388
488.51	11.393
488.71	11.400
488.91	11.412
489.11	11.433
489.32	11.459
489.52	11.502
489.72	11.555
489.92	11.613
490.12	11.674
490.32	11.735
490.52	11.769
490.72	11.789
490.92	11.800
491.12	11.794
491.32	11.787
491.52	11.776
491.72	11.777
491.92	11.776
492.13	11.773
492.33	11.765
492.53	11.771
492.73	11.779
492.93	11.799
493.13	11.819
493.33	11.850
493.53	11.892
493.73	11.939
493.93	11.963
494.13	11.995
494.33	12.023
494.53	12.056
494.73	12.069
494.93	12.097
495.13	12.124
495.33	12.155
495.53	12.184
495.73	12.209
495.94	12.234
496.14	12.276
496.34	12.294
496.54	12.305
496.74	12.323
496.94	12.351
497.14	12.353
497.34	12.369
497.54	12.375
497.74	12.396
497.94	12.425
498.14	12.440
498.34	12.448
498.54	12.466
498.74	12.475
498.94	12.487
499.14	12.501
499.34	12.521
499.54	12.525
499.74	12.549
499.94	12.570
500.14	12.579
500.34	12.602
500.54	12.627
500.74	12.635
500.94	12.671
501.14	12.697
501.34	12.712
501.54	12.744
501.74	12.767
501.94	12.789
502.14	12.803
502.34	12.818
502.54	12.835
502.74	12.848
502.94	12.889
503.14	12.907
503.34	12.928
503.54	12.960
503.74	12.982
503.94	12.990
504.14	13.017
504.34	13.044
504.54	13.058
504.74	13.075
504.94	13.088
505.14	13.104
505.34	13.131
505.54	13.144
505.74	13.165
505.94	13.172
506.14	13.219
506.34	13.238
506.54	13.259
506.74	13.279
506.94	13.284
507.14	13.303
507.34	13.316
507.54	13.327
507.74	13.334
507.94	13.331
508.14	13.348
508.34	13.348
508.54	13.352
508.74	13.368
508.94	13.384
509.13	13.397
509.33	13.427
509.53	13.443
509.73	13.456
509.93	13.479
510.13	13.513
510.33	13.546
510.53	13.561
510.73	13.595
510.93	13.609
511.13	13.634
511.33	13.677
511.53	13.696
511.73	13.721
511.93	13.746
512.13	13.769
512.33	13.783
512.53	13.779
512.73	13.806
512.92	13.835
513.12	13.857
513.32	13.887
513.52	13.913
513.72	13.921
513.92	13.947
514.12	13.969
514.32	13.991
514.52	14.009
514.72	14.032
514.92	14.046
515.12	14.054
515.32	14.069
515.52	14.086
515.71	14.105
515.91	14.138
516.11	14.152
516.31	14.181
516.51	14.193
516.71	14.222
516.91	14.265
517.11	14.299
517.31	14.311
517.51	14.333
517.71	14.341
517.90	14.356
518.10	14.363
518.30	14.366
518.50	14.360
518.70	14.376
518.90	14.390
519.10	14.386
519.30	14.398
519.50	14.425
519.69	14.439
519.89	14.461
520.09	14.475
520.29	14.499
520.49	14.544
520.69	14.597
520.89	14.637
521.09	14.674
521.29	14.722
521.48	14.748
521.68	14.757
521.88	14.781
522.08	14.795
522.28	14.822
522.48	14.841
522.68	14.856
522.88	14.862
523.07	14.879
523.27	14.901
523.47	14.920
523.67	14.944
523.87	14.975
524.07	14.998
524.27	15.026
524.47	15.034
524.66	15.057
524.86	15.082
525.06	15.102
525.26	15.116
525.46	15.124
525.66	15.130
525.85	15.133
526.05	15.149
526.25	15.172
526.45	15.205
526.65	15.256
526.85	15.321
527.05	15.393
527.24	15.482
527.44	15.543
527.64	15.594
527.84	15.635
528.04	15.666
528.24	15.645
528.43	15.637
528.63	15.627
528.83	15.609
529.03	15.587
529.23	15.567
529.43	15.538
529.62	15.520
529.82	15.501
530.02	15.479
530.22	15.463
530.42	15.487
530.62	15.513
530.81	15.546
531.01	15.589
531.21	15.639
531.41	15.675
531.61	15.737
531.80	15.799
532.00	15.853
532.20	15.902
532.40	15.937
532.60	15.965
532.79	15.970
532.99	15.967
533.19	15.969
533.39	15.963
533.59	15.968
533.78	15.960
533.98	15.953
534.18	15.951
534.38	15.958
534.58	15.958
534.77	15.996
534.97	16.040
535.17	16.101
535.37	16.159
535.57	16.211
535.76	16.244
535.96	16.262
536.16	16.271
536.36	16.274
536.56	16.267
536.75	16.286
536.95	16.277
537.15	16.284
537.35	16.273
537.54	16.269
537.74	16.282
537.94	16.304
538.14	16.332
538.34	16.364
538.53	16.417
538.73	16.466
538.93	16.499
539.13	16.550
539.32	16.600
539.52	16.664
539.72	16.729
539.92	16.779
540.11	16.808
540.31	16.833
540.51	16.856
540.71	16.841
540.90	16.818
541.10	16.806
541.30	16.795
541.50	16.784
541.69	16.771
541.89	16.761
542.09	16.757
542.29	16.762
542.48	16.760
542.68	16.765
542.88	16.782
543.08	16.818
543.27	16.859
543.47	16.899
543.67	16.918
543.87	16.955
544.06	16.978
544.26	16.998
544.46	17.027
544.65	17.068
544.85	17.086
545.05	17.114
545.25	17.157
545.44	17.178
545.64	17.207
545.84	17.255
546.04	17.269
546.23	17.276
546.43	17.280
546.63	17.290
546.82	17.287
547.02	17.315
547.22	17.345
547.42	17.343
547.61	17.369
547.81	17.390
548.01	17.401
548.20	17.434
548.40	17.495
548.60	17.551
548.79	17.587
548.99	17.634
549.19	17.654
549.39	17.667
549.58	17.708
549.78	17.723
549.98	17.741
550.17	17.767
550.37	17.790
550.57	17.780
550.76	17.787
550.96	17.812
551.16	17.837
551.35	17.871
551.55	17.894
551.75	17.913
551.94	17.918
552.14	17.923
552.34	17.919
552.53	17.926
552.73	17.952
552.93	17.976
553.13	17.996
553.32	18.004
553.52	18.005
553.72	18.014
553.91	18.023
554.11	18.055
554.31	18.114
554.50	18.157
554.70	18.192
554.89	18.220
555.09	18.247
555.29	18.255
555.48	18.285
555.68	18.318
555.88	18.350
556.07	18.371
556.27	18.406
556.47	18.398
556.66	18.412
556.86	18.434
557.06	18.472
557.25	18.481
557.45	18.504
557.65	18.504
557.84	18.524
558.04	18.547
558.23	18.580
558.43	18.584
558.63	18.589
558.82	18.592
559.02	18.599
559.22	18.596
559.41	18.614
559.61	18.635
559.81	18.669
560.00	18.705
560.20	18.721
560.39	18.737
560.59	18.749
560.79	18.775
560.98	18.808
561.18	18.841
561.37	18.870
561.57	18.879
561.77	18.879
561.96	18.902
562.16	18.910
562.36	18.931
562.55	18.970
562.75	18.995
562.94	19.037
563.14	19.052
563.34	19.074
563.53	19.082
563.73	19.114
563.92	19.135
564.12	19.157
564.32	19.181
564.51	19.221
564.71	19.243
564.90	19.276
565.10	19.293
565.29	19.313
565.49	19.312
565.69	19.335
565.88	19.331
566.08	19.358
566.27	19.352
566.47	19.354
566.67	19.353
566.86	19.367
567.06	19.377
567.25	19.398
567.45	19.418
567.64	19.452
567.84	19.469
568.04	19.524
568.23	19.548
568.43	19.597
568.62	19.630
568.82	19.668
569.01	19.678
569.21	19.689
569.41	19.685
569.60	19.711
569.80	19.735
569.99	19.764
570.19	19.793
570.38	19.814
570.58	19.831
570.77	19.861
570.97	19.868
571.17	19.876
571.36	19.888
571.56	19.898
571.75	19.894
571.95	19.904
572.14	19.907
572.34	19.898
572.53	19.925
572.73	19.939
572.92	19.952
573.12	19.963
573.31	19.980
573.51	20.011
573.70	20.056
573.90	20.089
574.10	20.099
574.29	20.157
574.49	20.173
574.68	20.183
574.88	20.193
575.07	20.198
575.27	20.223
575.46	20.226
575.66	20.245
575.85	20.248
576.05	20.270
576.24	20.290
576.44	20.285
576.63	20.318
576.83	20.340
577.02	20.373
577.22	20.392
577.41	20.420
577.61	20.449
577.80	20.464
578.00	20.472
578.19	20.489
578.39	20.510
578.58	20.506
578.78	20.512
578.97	20.528
579.17	20.544
579.36	20.546
579.56	20.576
579.75	20.614
579.95	20.639
580.14	20.659
580.34	20.678
580.53	20.699
580.73	20.733
580.92	20.761
581.12	20.761
581.31	20.776
581.51	20.811
581.70	20.808
581.89	20.807
582.09	20.823
582.28	20.847
582.48	20.875
582.67	20.903
582.87	20.920
583.06	20.934
583.26	20.946
583.45	20.969
583.65	20.979
583.84	20.999
584.04	21.008
584.23	21.014
584.43	21.022
584.62	21.024
584.81	21.037
585.01	21.040
585.20	21.022
585.40	21.055
585.59	21.067
585.79	21.112
585.98	21.113
586.18	21.150
586.37	21.170
586.56	21.165
586.76	21.183
586.95	21.200
587.15	21.234
587.34	21.284
587.54	21.303
587.73	21.311
587.92	21.293
588.12	21.328
588.31	21.333
588.51	21.350
588.70	21.395
588.90	21.408
589.09	21.426
589.28	21.440
589.48	21.441
589.67	21.463
589.87	21.467
590.06	21.498
590.25	21.496
590.45	21.526
590.64	21.539
590.84	21.556
591.03	21.582
591.23	21.584
591.42	21.603
591.61	21.629
591.81	21.621
592.00	21.663
592.20	21.670
592.39	21.698
592.58	21.703
592.78	21.722
592.97	21.734
593.17	21.736
593.36	21.748
593.55	21.778
593.75	21.806
593.94	21.813
594.13	21.829
594.33	21.860
594.52	21.880
594.72	21.901
594.91	21.919
595.10	21.938
595.30	21.963
595.49	22.002
595.68	22.016
595.88	22.018
596.07	22.033
596.27	22.018
596.46	21.989
596.65	21.980
596.85	21.977
597.04	21.984
597.23	21.989
597.43	21.995
597.62	21.991
597.81	21.981
598.01	21.994
598.20	22.021
598.40	22.059
598.59	22.104
598.78	22.142
598.98	22.183
599.17	22.215
599.36	22.227
599.56	22.269
599.75	22.276
599.94	22.292
600.14	22.329
600.33	22.354
600.52	22.353
600.72	22.406
600.91	22.413
601.10	22.410
601.30	22.414
601.49	22.445
601.68	22.445
601.88	22.491
602.07	22.512
602.26	22.518
602.46	22.496
602.65	22.516
602.84	22.521
603.04	22.555
603.23	22.585
603.42	22.607
603.62	22.627
603.81	22.627
604.00	22.608
604.20	22.608
604.39	22.604
604.58	22.624
604.77	22.627
604.97	22.628
605.16	22.612
605.35	22.623
605.55	22.629
605.74	22.635
605.93	22.670
606.13	22.709
606.32	22.752
606.51	22.794
606.70	22.850
606.90	22.898
607.09	22.925
607.28	22.960
607.48	22.991
607.67	23.014
607.86	23.059
608.05	23.084
608.25	23.099
608.44	23.111
608.63	23.144
608.83	23.135
609.02	23.103
609.21	23.093
609.40	23.107
609.60	23.102
609.79	23.106
609.98	23.095
610.17	23.097
610.37	23.107
610.56	23.100
610.75	23.074
610.95	23.094
611.14	23.125
611.33	23.156
611.52	23.173
611.72	23.174
611.91	23.195
612.10	23.201
612.29	23.212
612.49	23.212
612.68	23.244
612.87	23.273
613.06	23.269
613.26	23.293
613.45	23.296
613.64	23.309
613.83	23.338
614.03	23.345
614.22	23.362
614.41	23.375
614.60	23.408
614.79	23.422
614.99	23.450
615.18	23.455
615.37	23.484
615.56	23.493
615.76	23.509
615.95	23.517
616.14	23.533
616.33	23.554
616.53	23.569
616.72	23.589
616.91	23.582
617.10	23.578
617.29	23.608
617.49	23.604
617.68	23.625
617.87	23.618
618.06	23.651
618.25	23.684
618.45	23.704
618.64	23.688
618.83	23.685
619.02	23.717
619.21	23.746
619.41	23.765
619.60	23.788
619.79	23.796
619.98	23.834
620.17	23.811
620.37	23.783
620.56	23.799
620.75	23.837
620.94	23.845
621.13	23.842
621.33	23.828
621.52	23.834
621.71	23.854
621.90	23.898
622.09	23.873
622.28	23.908
622.48	23.948
622.67	23.950
622.86	23.968
623.05	23.984
623.24	24.005
623.44	24.040
623.63	24.053
623.82	24.074
624.01	24.067
624.20	24.101
624.39	24.116
624.59	24.114
624.78	24.136
624.97	24.190
625.16	24.200
625.35	24.239
625.54	24.243
625.73	24.264
625.93	24.256
626.12	24.279
626.31	24.309
626.50	24.295
626.69	24.303
626.88	24.316
627.07	24.288
627.27	24.307
627.46	24.308
627.65	24.337
627.84	24.330
628.03	24.351
628.22	24.342
628.41	24.339
628.61	24.380
628.80	24.403
628.99	24.416
629.18	24.402
629.37	24.412
629.56	24.422
629.75	24.429
629.94	24.466
630.14	24.472
630.33	24.497
630.52	24.507
630.71	24.505
630.90	24.542
631.09	24.548
631.28	24.578
631.47	24.586
631.66	24.589
631.86	24.594
632.05	24.595
632.24	24.604
632.43	24.616
632.62	24.640
632.81	24.675
633.00	24.651
633.19	24.652
633.38	24.680
633.57	24.706
633.77	24.702
633.96	24.732
634.15	24.746
634.34	24.748
634.53	24.778
634.72	24.775
634.91	24.774
635.10	24.782
635.29	24.825
635.48	24.848
635.67	24.866
635.86	24.909
636.05	24.909
636.25	24.909
636.44	24.954
636.63	24.941
636.82	24.998
637.01	25.008
637.20	25.041
637.39	25.055
637.58	25.057
637.77	25.075
637.96	25.087
638.15	25.099
638.34	25.147
638.53	25.134
638.72	25.164
638.91	25.160
639.10	25.190
639.30	25.234
639.49	25.220
639.68	25.246
639.87	25.241
640.06	25.248
640.25	25.286
640.44	25.272
640.63	25.283
640.82	25.292
641.01	25.304
641.20	25.322
641.39	25.304
641.58	25.335
641.77	25.324
641.96	25.375
642.15	25.372
642.34	25.380
642.53	25.406
642.72	25.414
642.91	25.419
643.10	25.425
643.29	25.437
643.48	25.434
643.67	25.417
643.86	25.461
644.05	25.458
644.24	25.497
644.43	25.502
644.62	25.522
644.81	25.534
645.00	25.551
645.19	25.580
645.38	25.588
645.57	25.606
645.76	25.632
645.95	25.627
646.14	25.639
646.33	25.659
646.52	25.635
646.71	25.657
646.90	25.684
647.09	25.691
647.28	25.672
647.47	25.679
647.66	25.693
647.85	25.710
648.04	25.726
648.23	25.732
648.42	25.710
648.61	25.737
648.80	25.702
648.99	25.713
649.18	25.732
649.37	25.771
649.56	25.790
649.75	25.784
649.94	25.787
650.13	25.816
650.32	25.844
650.51	25.868
650.70	25.877
650.89	25.908
651.08	25.925
651.27	25.944
651.46	25.955
651.65	25.947
651.83	25.994
652.02	26.024
652.21	26.010
652.40	26.022
652.59	26.033
652.78	26.052
652.97	26.075
653.16	26.077
653.35	26.075
653.54	26.050
653.73	26.088
653.92	26.069
654.11	26.055
654.30	26.066
654.49	26.071
654.68	26.071
654.86	26.086
655.05	26.113
655.24	26.118
655.43	26.096
655.62	26.154
655.81	26.138
656.00	26.154
656.19	26.180
656.38	26.203
656.57	26.203
656.76	26.238
656.95	26.279
657.13	26.270
657.32	26.306
657.51	26.353
657.70	26.371
657.89	26.410
658.08	26.447
658.27	26.470
658.46	26.455
658.65	26.468
658.84	26.461
659.02	26.437
659.21	26.451
659.40	26.476
659.59	26.507
659.78	26.482
659.97	26.460
660.16	26.458
660.35	26.449
660.54	26.455
660.72	26.443
660.91	26.444
661.10	26.454
661.29	26.473
661.48	26.442
661.67	26.434
661.86	26.478
662.05	26.503
662.23	26.535
662.42	26.531
662.61	26.585
662.80	26.608
662.99	26.635
663.18	26.689
663.37	26.677
663.56	26.697
663.74	26.686
663.93	26.652
664.12	26.680
664.31	26.684
664.50	26.720
664.69	26.710
664.87	26.748
665.06	26.768
665.25	26.740
665.44	26.741
665.63	26.721
665.82	26.755
666.01	26.772
666.19	26.802
666.38	26.821
666.57	26.814
666.76	26.799
666.95	26.775
667.14	26.769
667.32	26.785
667.51	26.802
667.70	26.856
667.89	26.846
668.08	26.861
668.26	26.852
668.45	26.829
668.64	26.834
668.83	26.881
669.02	26.910
669.21	26.934
669.39	26.940
669.58	26.959
669.77	26.971
669.96	27.036
670.15	27.057
670.33	27.037
670.52	27.043
670.71	27.087
670.90	27.092
671.09	27.111
671.27	27.114
671.46	27.132
671.65	27.132
671.84	27.146
672.03	27.150
672.21	27.145
672.40	27.183
672.59	27.183
672.78	27.187
672.96	27.193
673.15	27.213
673.34	27.216
673.53	27.232
673.72	27.247
673.90	27.246
674.09	27.214
674.28	27.249
674.47	27.275
674.65	27.310
674.84	27.289
675.03	27.325
675.22	27.322
675.41	27.356
675.59	27.367
675.78	27.372
675.97	27.378
676.16	27.427
676.34	27.437
676.53	27.424
676.72	27.458
676.91	27.481
677.09	27.455
677.28	27.459
677.47	27.452
677.66	27.454
677.84	27.487
678.03	27.507
678.22	27.507
678.41	27.515
678.59	27.534
678.78	27.507
678.97	27.552
679.15	27.586
679.34	27.609
679.53	27.621
679.72	27.639
679.90	27.639
680.09	27.641
680.28	27.621
680.47	27.631
680.65	27.622
680.84	27.646
681.03	27.643
681.21	27.619
681.40	27.610
681.59	27.605
681.78	27.623
681.96	27.633
682.15	27.659
682.34	27.698
682.52	27.691
682.71	27.697
682.90	27.712
683.08	27.740
683.27	27.799
683.46	27.820
683.65	27.851
683.83	27.825
684.02	27.827
684.21	27.822
684.39	27.799
684.58	27.829
684.77	27.859
684.95	27.833
685.14	27.775
685.33	27.762
685.51	27.764
685.70	27.762
685.89	27.774
686.07	27.798
686.26	27.824
686.45	27.857
686.63	27.832
686.82	27.848
687.01	27.888
687.20	27.937
687.38	27.941
687.57	27.929
687.75	27.950
687.94	27.996
688.13	27.998
688.31	27.982
688.50	28.007
688.69	28.054
688.87	28.064
689.06	28.069
689.25	28.072
689.43	28.073
689.62	28.117
689.81	28.123
689.99	28.118
690.18	28.133
690.37	28.136
690.55	28.099
690.74	28.082
690.93	28.118
691.11	28.161
691.30	28.197
691.48	28.237
691.67	28.215
691.86	28.216
692.04	28.234
692.23	28.232
692.42	28.267
692.60	28.326
692.79	28.370
692.97	28.366
693.16	28.355
693.35	28.345
693.53	28.337
693.72	28.410
693.90	28.437
694.09	28.445
694.28	28.485
694.46	28.488
694.65	28.466
694.83	28.486
695.02	28.485
695.21	28.519
695.39	28.533
695.58	28.557
695.76	28.546
695.95	28.540
696.14	28.532
696.32	28.510
696.51	28.520
696.69	28.556
696.88	28.580
697.07	28.635
697.25	28.634
697.44	28.662
697.62	28.676
697.81	28.677
697.99	28.671
698.18	28.661
698.37	28.656
698.55	28.641
698.74	28.641
698.92	28.620
699.11	28.563
699.29	28.552
699.48	28.529
699.67	28.510
699.85	28.480
700.04	28.470
700.22	28.500
700.41	28.528
700.59	28.549
700.78	28.540
700.96	28.527
701.15	28.570
701.34	28.559
701.52	28.601
701.71	28.629
701.89	28.685
702.08	28.746
702.26	28.743
702.45	28.729
702.63	28.765
702.82	28.775
703.00	28.829
703.19	28.800
703.38	28.835
703.56	28.849
703.75	28.832
703.93	28.841
704.12	28.878
704.30	28.891
704.49	28.938
704.67	28.922
704.86	28.955
705.04	28.969
705.23	29.008
705.41	29.006
705.60	28.988
705.78	29.050
705.97	29.038
706.15	29.006
706.34	29.043
706.52	29.028
706.71	29.049
706.89	29.018
707.08	29.016
707.26	28.972
707.45	28.984
707.63	28.975
707.82	28.925
708.00	28.931
708.19	28.927
708.37	28.904
708.56	28.885
708.74	28.861
708.93	28.888
709.11	28.876
709.30	28.942
709.48	28.948
709.67	28.953
709.85	28.949
710.04	28.947
710.22	29.011
710.41	29.022
710.59	29.081
710.77	29.087
710.96	29.083
711.14	29.059
711.33	29.069
711.51	29.063
711.70	29.055
711.88	29.081
712.07	29.084
712.25	29.021
712.44	29.007
712.62	28.980
712.80	29.022
712.99	29.062
713.17	29.044
713.36	29.021
713.54	29.075
713.73	29.099
713.91	29.105
714.10	29.142
714.28	29.153
714.46	29.180
714.65	29.233
714.83	29.258
715.02	29.282
715.20	29.340
715.39	29.352
715.57	29.342
715.75	29.351
715.94	29.302
716.12	29.345
716.31	29.370
716.49	29.382
716.68	29.336
716.86	29.316
717.04	29.302
717.23	29.349
717.41	29.392
717.60	29.433
717.78	29.485
717.96	29.524
718.15	29.471
718.33	29.452
718.52	29.447
718.70	29.494
718.88	29.481
719.07	29.507
719.25	29.464
719.44	29.443
719.62	29.393
719.80	29.299
719.99	29.377
720.17	29.377
720.36	29.443
720.54	29.450
720.72	29.462
720.91	29.479
721.09	29.416
721.27	29.457
721.46	29.489
721.64	29.516
721.83	29.583
722.01	29.557
722.19	29.589
722.38	29.605
722.56	29.698
722.74	29.685
722.93	29.738
723.11	29.789
723.30	29.786
723.48	29.794
723.66	29.812
723.85	29.859
724.03	29.904
724.21	29.945
724.40	29.898
724.58	29.853
724.76	29.836
724.95	29.817
725.13	29.841
725.31	29.904
725.50	29.895
725.68	29.875
725.86	29.891
726.05	29.889
726.23	29.917
726.41	29.912
726.60	29.868
726.78	29.900
726.96	29.917
727.15	29.862
727.33	29.839
727.51	29.833
727.70	29.859
727.88	29.797
728.06	29.780
728.25	29.755
728.43	29.834
728.61	29.968
728.80	29.969
728.98	29.979
729.16	30.024
729.34	29.974
729.53	29.971
729.71	29.968
729.89	29.998
730.08	30.001
730.26	29.994
730.44	29.975
730.63	29.894
730.81	29.903
730.99	29.915
731.17	29.948
731.36	29.989
731.54	30.026
731.72	30.072
731.91	30.090
732.09	30.118
732.27	30.148
732.45	30.114
732.64	30.140
732.82	30.133
733.00	30.128
733.19	30.079
733.37	30.110
733.55	30.136
733.73	30.118
733.92	30.162
734.10	30.194
734.28	30.197
734.46	30.238
734.65	30.258
734.83	30.256
735.01	30.318
735.19	30.381
735.38	30.367
735.56	30.362
735.74	30.402
735.92	30.383
736.11	30.364
736.29	30.379
736.47	30.388
736.65	30.355
736.84	30.431
737.02	30.427
737.20	30.445
737.38	30.476
737.57	30.456
737.75	30.423
737.93	30.429
738.11	30.395
738.30	30.379
738.48	30.402
738.66	30.374
738.84	30.392
739.02	30.329
739.21	30.280
739.39	30.283
739.57	30.291
739.75	30.283
739.93	30.297
740.12	30.371
740.30	30.350
740.48	30.335
740.66	30.385
740.85	30.346
741.03	30.355
741.21	30.464
741.39	30.477
741.57	30.512
741.76	30.536
741.94	30.542
742.12	30.511
742.30	30.547
742.48	30.552
742.66	30.569
742.85	30.607
743.03	30.667
743.21	30.644
743.39	30.615
743.57	30.589
743.76	30.576
743.94	30.544
744.12	30.525
744.30	30.616
744.48	30.611
744.66	30.596
744.85	30.573
745.03	30.523
745.21	30.512
745.39	30.540
745.57	30.616
745.75	30.637
745.94	30.688
746.12	30.732
746.30	30.656
746.48	30.734
746.66	30.775
746.84	30.746
747.02	30.795
747.21	30.803
747.39	30.811
747.57	30.805
747.75	30.866
747.93	30.888
748.11	30.936
748.29	30.970
748.48	30.915
748.66	30.879
748.84	30.924
749.02	30.943
749.20	30.953
749.38	30.921
749.56	30.910
749.75	30.922
749.93	30.881
750.11	30.882
750.29	30.856
750.47	30.867
750.65	30.847
750.83	30.847
751.01	30.813
751.19	30.823
751.38	30.886
751.56	30.870
751.74	30.808
751.92	30.796
752.10	30.752
752.28	30.784
752.46	30.853
752.64	30.855
752.82	30.881
753.00	30.892
753.19	30.910
753.37	30.877
753.55	30.915
753.73	30.966
753.91	31.045
754.09	31.022
754.27	30.991
754.45	30.959
754.63	31.053
754.81	31.021
754.99	31.001
755.17	30.738
755.36	30.775
755.54	30.750
755.72	30.732
755.90	30.699
756.08	30.715
756.26	30.743
756.44	30.742
756.62	30.713
756.80	30.824
756.98	30.851
757.16	31.022
757.34	31.083
757.52	31.136
757.70	31.149
757.88	31.179
758.06	31.192
758.24	31.199
758.42	31.150
758.61	31.158
758.79	31.068
758.97	31.111
759.15	31.169
759.33	31.101
759.51	31.108
759.69	31.103
759.87	31.142
760.05	31.190
760.23	31.192
760.41	31.241
760.59	31.185
760.77	31.252
760.95	31.246
761.13	31.259
761.31	31.265
761.49	31.224
761.67	31.323
761.85	31.327
762.03	31.290
762.21	31.323
762.39	31.347
762.57	31.430
762.75	31.399
762.93	31.362
763.11	31.354
763.29	31.314
763.47	31.242
763.65	31.166
763.83	31.097
764.01	31.114
764.19	31.091
764.37	31.077
764.55	31.050
764.73	31.039
764.91	31.056
765.09	31.077
765.27	31.101
765.45	31.159
765.63	31.184
765.81	31.212
765.99	31.247
766.17	31.250
766.35	31.268
766.53	31.286
766.71	31.286
766.89	31.340
767.07	31.316
767.25	31.345
767.43	31.370
767.61	31.415
767.78	31.483
767.96	31.469
768.14	31.503
768.32	31.575
768.50	31.609
768.68	31.630
768.86	31.572
769.04	31.644
769.22	31.642
769.40	31.732
769.58	31.691
769.76	31.694
769.94	31.730
770.12	31.789
770.30	31.746
770.48	31.671
770.66	31.738
770.84	31.761
771.01	31.701
771.19	31.672
771.37	31.665
771.55	31.776
771.73	31.777
771.91	31.708
772.09	31.671
772.27	31.695
772.45	31.840
772.63	31.806
772.81	31.846
772.99	31.796
773.16	31.852
773.34	31.882
773.52	31.868
773.70	31.869
773.88	31.866
774.06	31.864
774.24	31.811
774.42	31.723
774.60	31.762
774.78	31.681
774.95	31.812
775.13	31.828
775.31	31.759
775.49	31.729
775.67	31.771
775.85	31.853
776.03	31.929
776.21	31.997
776.38	32.025
776.56	31.984
776.74	32.015
776.92	32.012
777.10	32.061
777.28	32.068
777.46	32.052
777.64	32.087
777.81	32.080
777.99	31.963
778.17	31.875
778.35	31.939
778.53	31.962
778.71	32.068
778.89	32.026
779.06	31.988
779.24	32.023
779.42	31.982
779.60	31.892
779.78	31.827
779.96	31.923
780.13	32.030
780.31	31.974
780.49	31.951
780.67	31.850
780.85	31.898
781.03	31.837
781.20	31.680
781.38	31.699
781.56	31.828
781.74	31.908
781.92	31.880
782.10	31.838
782.27	31.863
782.45	31.899
782.63	31.867
782.81	31.841
782.99	31.921
783.17	32.102
783.34	32.140
783.52	32.090
783.70	32.032
783.88	32.050
784.06	32.131
784.23	32.130
784.41	32.174
784.59	32.248
784.77	32.337
784.95	32.373
785.12	32.253
785.30	32.163
785.48	32.090
785.66	32.147
785.83	32.160
786.01	32.151
786.19	32.204
786.37	32.059
786.55	31.987
786.72	31.865
786.90	31.883
787.08	32.008
787.26	32.139
787.43	32.168
787.61	32.198
787.79	32.226
787.97	32.178
788.15	32.086
788.32	32.187
788.50	32.312
788.68	32.347
788.86	32.311
789.03	32.379
789.21	32.398
789.39	32.402
789.57	32.315
789.74	32.281
789.92	32.358
790.10	32.408
790.28	32.485
790.45	32.559
790.63	32.639
790.81	32.723
790.99	32.668
791.16	32.627
791.34	32.632
791.52	32.658
791.69	32.657
791.87	32.555
792.05	32.544
792.23	32.530
792.40	32.412
792.58	32.421
792.76	32.354
792.94	32.337
793.11	32.324
793.29	32.414
793.47	32.519
793.64	32.681
793.82	32.745
794.00	32.669
794.18	32.526
794.35	32.555
794.53	32.429
794.71	32.481
794.88	32.534
795.06	32.532
795.24	32.461
795.41	32.422
795.59	32.364
795.77	32.356
795.94	32.358
796.12	32.593
796.30	32.598
796.48	32.599
796.65	32.542
796.83	32.486
797.01	32.508
797.18	32.510
797.36	32.523
797.54	32.439
797.71	32.414
797.89	32.524
798.07	32.454
798.24	32.461
798.42	32.391
798.60	32.407
798.77	32.470
798.95	32.435
799.13	32.377
799.30	32.360
799.48	32.394
799.66	32.355
799.83	32.378
800.01	32.319
800.18	32.300
800.36	32.470
800.54	32.456
800.71	32.361
800.89	32.306
801.07	32.433
801.24	32.583
801.42	32.637
801.60	32.790
801.77	32.811
801.95	32.818
802.12	32.785
802.30	32.797
802.48	32.921
802.65	32.984
802.83	33.165
803.01	33.107
803.18	32.900
803.36	32.859
803.53	32.854
803.71	32.824
803.89	32.877
804.06	32.943
804.24	32.970
804.41	32.978
804.59	33.007
804.77	33.111
804.94	33.146
805.12	33.210
805.29	33.258
805.47	33.199
805.65	33.266
805.82	33.194
806.00	33.180
806.17	32.993
806.35	32.899
806.53	32.843
806.70	32.703
806.88	32.675
807.05	32.803
807.23	32.674
807.40	32.686
807.58	32.619
807.76	32.617
807.93	32.600
808.11	32.729
808.28	32.767
808.46	32.786
808.63	32.799
808.81	32.824
808.99	32.895
809.16	32.981
809.34	33.058
809.51	33.055
809.69	33.079
809.86	33.071
810.04	33.071
810.21	33.028
810.39	33.061
810.57	33.096
810.74	33.129
810.92	32.893
811.09	32.807
811.27	32.722
811.44	32.773
811.62	32.919
811.79	33.013
811.97	32.998
812.14	32.950
812.32	32.921
812.49	32.872
812.67	32.916
812.84	33.012
813.02	33.237
813.19	33.382
813.37	33.320
813.55	33.076
813.72	33.025
813.90	33.104
814.07	33.134
814.25	33.146
814.42	33.248
814.60	33.220
814.77	33.147
814.95	33.084
815.12	33.010
815.30	33.048
815.47	33.229
815.65	33.280
815.82	33.388
816.00	33.506
816.17	33.516
816.35	33.386
816.52	33.518
816.69	33.694
816.87	33.792
817.04	33.743
817.22	33.722
817.39	33.639
817.57	33.538
817.74	33.403
817.92	33.425
818.09	33.432
818.27	33.485
818.44	33.357
818.62	33.309
818.79	33.195
818.97	33.188
819.14	33.337
819.32	33.365
819.49	33.472
819.66	33.470
819.84	33.392
820.01	33.402
820.19	33.477
820.36	33.439
820.54	33.472
820.71	33.481
820.89	33.535
821.06	33.560
821.23	33.612
821.41	33.501
821.58	33.372
821.76	33.246
821.93	33.134
822.11	32.943
822.28	32.838
822.45	32.674
822.63	32.564
822.80	32.486
822.98	32.403
823.15	32.350
823.33	32.300
823.50	32.249
823.67	32.208
823.85	32.162
824.02	32.185
824.20	32.210
824.37	32.307
824.54	32.404
824.72	32.498
824.89	32.596
825.07	32.622
825.24	32.665
825.41	32.767
825.59	32.843
825.76	32.938
825.94	33.034
826.11	33.151
826.28	33.267
826.46	33.333
826.63	33.328
826.80	33.240
826.98	33.168
827.15	33.191
827.33	33.154
827.50	33.109
827.67	33.096
827.85	33.051
828.02	32.956
828.19	32.916
828.37	32.902
828.54	32.889
828.72	32.945
828.89	33.026
829.06	33.022
829.24	33.106
829.41	33.170
829.58	33.202
829.76	33.255
829.93	33.335
830.10	33.273
830.28	33.221
830.45	33.285
830.62	33.335
830.80	33.407
830.97	33.481
831.14	33.439
831.32	33.519
831.49	33.502
831.66	33.516
831.84	33.591
832.01	33.704
832.18	33.890
832.36	33.831
832.53	33.991
832.70	34.102
832.88	34.118
833.05	34.035
833.22	33.911
833.40	33.805
833.57	33.689
833.74	33.598
833.91	33.521
834.09	33.446
834.26	33.423
834.43	33.333
834.61	33.231
834.78	33.170
834.95	33.171
835.13	33.150
835.30	33.189
835.47	33.221
835.64	33.236
835.82	33.267
835.99	33.297
836.16	33.350
836.34	33.411
836.51	33.518
836.68	33.520
836.85	33.503
837.03	33.635
837.20	33.702
837.37	33.852
837.54	33.841
837.72	33.845
837.89	33.760
838.06	33.640
838.24	33.510
838.41	33.527
838.58	33.457
838.75	33.512
838.93	33.565
839.10	33.518
839.27	33.454
839.44	33.491
839.62	33.673
839.79	33.843
839.96	33.970
840.13	33.992
840.31	33.829
840.48	33.989
840.65	33.913
840.82	33.795
840.99	33.884
841.17	33.864
841.34	33.998
841.51	33.905
841.68	33.921
841.86	33.906
842.03	33.991
842.20	34.083
842.37	34.135
842.55	34.146
842.72	34.158
842.89	34.008
843.06	33.984
843.23	33.629
843.41	33.772
843.58	33.637
843.75	33.880
843.92	33.757
844.09	33.815
844.27	33.637
844.44	33.819
844.61	33.944
844.78	34.188
844.95	34.073
845.13	34.302
845.30	34.238
845.47	34.302
845.64	34.300
845.81	34.736
845.98	34.429
846.16	34.345
846.33	34.365
846.50	34.365
846.67	34.330
846.84	34.628
847.02	34.858
847.19	35.007
847.36	34.938
847.53	34.735
847.70	34.272
847.87	34.651
848.04	34.760
848.22	34.852
848.39	34.749
848.56	34.623
848.73	34.642
848.90	34.501
849.07	34.251
849.25	34.239
849.42	34.075
849.59	34.218
849.76	34.275
849.93	34.656
850.10	34.450
850.27	34.482
850.45	34.576
850.62	34.485
850.79	34.379
850.96	34.071
851.13	34.475
851.30	34.329
851.47	34.168
851.64	34.060
851.82	33.590
851.99	33.498
852.16	33.506
852.33	33.409
852.50	33.374
852.67	33.754
852.84	33.961
853.01	33.646
853.18	34.166
853.35	34.368
853.53	34.384
853.70	34.806
853.87	35.068
854.04	35.134
854.21	35.273
854.38	35.213
854.55	34.824
854.72	35.002
854.89	34.875
855.06	34.595
855.23	34.509
855.41	34.095
855.58	34.065
855.75	34.247
855.92	34.059
856.09	34.006
856.26	34.085
856.43	33.984
856.60	33.755
856.77	33.988
856.94	33.684
857.11	33.713
857.28	34.037
857.45	33.885
857.62	33.663
857.80	33.904
857.97	33.645
858.14	33.504
858.31	33.725
858.48	33.882
858.65	33.874
858.82	33.970
858.99	33.782
859.16	34.121
859.33	34.501
859.50	34.473
859.67	34.726
859.84	34.722
860.01	34.647
860.18	34.393
860.35	34.201
860.52	34.352
860.69	34.393
860.86	34.716
861.03	34.106
861.20	33.656
861.37	33.734
861.54	33.407
861.71	33.255
861.88	33.199
862.05	33.556
862.22	33.621
862.39	33.450
862.56	33.460
862.73	33.443
862.90	33.973
863.07	33.853
863.24	33.895
863.41	33.746
863.58	33.943
863.75	34.335
863.92	34.434
864.09	34.510
864.26	34.344
864.43	34.428
864.60	34.548
864.77	34.386
864.94	34.665
865.11	34.680
865.28	35.086
865.45	35.309
865.62	35.103
865.79	35.239
865.96	34.980
866.13	35.060
866.30	35.064
866.47	34.598
866.64	34.244
866.81	34.130
866.98	34.180
867.15	33.867
867.32	33.834
867.49	33.974
867.66	33.739
867.82	33.924
867.99	33.837
868.16	34.242
868.33	34.509
868.50	34.554
868.67	34.794
868.84	34.758
869.01	34.839
869.18	34.955
869.35	35.068
869.52	35.466
869.69	35.898
869.86	36.085
870.03	35.904
870.19	35.755
870.36	36.083
870.53	35.765
870.70	35.674
870.87	35.934
871.04	35.538
871.21	35.395
871.38	35.295
871.55	34.988
871.72	34.894
871.89	34.929
872.05	34.844
872.22	34.280
872.39	34.236
872.56	34.118
872.73	33.883
872.90	34.128
873.07	33.889
873.24	33.704
873.41	33.899
873.57	33.843
873.74	33.873
873.91	34.090
874.08	34.418
874.25	34.611
874.42	34.544
874.59	34.681
874.76	34.412
874.92	34.452
875.09	34.630
875.26	34.445
875.43	34.533
875.60	34.343
875.77	34.241
875.94	34.494
876.11	34.538
876.27	34.670
876.44	34.492
876.61	34.718
876.78	34.720
876.95	34.535
877.12	34.575
877.28	34.519
877.45	34.546
877.62	34.829
877.79	34.677
877.96	34.565
878.13	34.580
878.29	34.535
878.46	34.398
878.63	34.541
878.80	34.512
878.97	34.477
879.14	34.649
879.30	34.912
879.47	34.830
879.64	34.844
879.81	34.984
879.98	35.066
880.14	35.170
880.31	35.305
880.48	35.509
880.65	35.577
880.82	35.445
880.98	35.238
881.15	34.974
881.32	34.733
881.49	34.587
881.66	34.404
881.82	34.219
881.99	34.132
882.16	34.041
882.33	33.930
882.50	33.836
882.66	33.795
882.83	33.754
883.00	33.727
883.17	33.752
883.33	33.761
883.50	33.840
883.67	33.914
883.84	33.973
884.01	34.039
884.17	34.094
884.34	34.132
884.51	34.165
884.68	34.172
884.84	34.165
885.01	34.214
885.18	34.224
885.35	34.169
885.51	34.201
885.68	34.179
885.85	34.235
886.02	34.233
886.18	34.204
886.35	34.217
886.52	34.378
886.69	34.477
886.85	34.494
887.02	34.531
887.19	34.566
887.35	34.650
887.52	34.672
887.69	34.480
887.86	34.635
888.02	34.709
888.19	34.865
888.36	34.888
888.53	34.166
888.69	37.289
888.86	33.968
889.03	36.516
>>>>>End Spectral Data<<<<<
