OOIBase32 Version 2.0.6.5 Data File
++++++++++++++++++++++++++++++++++++
Date: 11-17-2016, 11:09:05
User: Valued Ocean Optics Customer
Spectrometer Serial Number: USB4C01507
Spectrometer Channel: Master
Integration Time (msec): 49
Spectra Averaged: 25
Boxcar Smoothing: 5
Correct for Electrical Dark: Enabled
Time Normalized: Disabled
Dual-beam Reference: Disabled
Reference Channel: Master
Temperature: Not acquired
Spectrometer Type: S4000
ADC Type: USB4000
Number of Pixels in File: 3648
Graph Title: 
>>>>>Begin Spectral Data<<<<<
178.53	1729.796
178.74	2225.279
178.96	71.480
179.18	-39.442
179.39	101.375
179.61	-39.329
179.82	69.945
180.04	95.485
180.25	138.766
180.47	-50.116
180.69	87.186
180.90	1010.816
181.12	807.756
181.33	162.882
181.55	15.492
181.76	-3454.117
181.98	58.268
182.20	-364.082
182.41	16.895
182.63	117.837
182.84	20.961
183.06	24.234
183.27	23.762
183.49	36.928
183.71	38.938
183.92	33.669
184.14	27.186
184.35	42.814
184.57	44.976
184.78	41.871
185.00	42.403
185.21	42.821
185.43	41.034
185.65	39.508
185.86	30.690
186.08	32.786
186.29	31.602
186.51	35.415
186.72	29.314
186.94	19.571
187.15	19.437
187.37	21.723
187.58	29.120
187.80	33.279
188.02	34.007
188.23	28.372
188.45	29.696
188.66	30.103
188.88	27.013
189.09	26.386
189.31	41.989
189.52	41.316
189.74	38.567
189.95	33.292
190.17	33.106
190.38	37.609
190.60	45.500
190.82	46.804
191.03	52.270
191.25	52.789
191.46	57.589
191.68	47.398
191.89	43.160
192.11	40.011
192.32	37.677
192.54	35.364
192.75	36.426
192.97	41.438
193.18	41.659
193.40	41.629
193.61	41.214
193.83	45.995
194.04	45.517
194.26	56.115
194.48	57.335
194.69	59.072
194.91	57.786
195.12	54.495
195.34	51.715
195.55	49.736
195.77	45.166
195.98	44.760
196.20	41.803
196.41	38.890
196.63	31.744
196.84	32.718
197.06	37.739
197.27	35.044
197.49	33.498
197.70	32.010
197.92	30.112
198.13	29.863
198.35	28.333
198.56	24.201
198.78	26.499
198.99	22.182
199.21	22.261
199.42	18.721
199.64	27.322
199.85	29.800
200.07	26.545
200.28	29.852
200.50	31.909
200.71	33.702
200.93	37.962
201.14	37.226
201.36	39.895
201.57	41.727
201.79	43.542
202.00	38.128
202.22	38.035
202.43	40.909
202.65	38.609
202.86	38.080
203.08	33.797
203.29	31.842
203.51	27.934
203.72	27.195
203.94	25.994
204.15	22.530
204.37	24.836
204.58	24.884
204.80	22.657
205.01	24.593
205.22	21.327
205.44	26.915
205.65	21.452
205.87	26.236
206.08	27.789
206.30	28.531
206.51	25.260
206.73	21.475
206.94	19.260
207.16	16.855
207.37	17.301
207.59	17.685
207.80	15.535
208.02	18.788
208.23	16.581
208.45	15.881
208.66	12.243
208.88	16.143
209.09	16.414
209.30	16.130
209.52	14.437
209.73	12.904
209.95	18.401
210.16	13.603
210.38	15.950
210.59	18.174
210.81	15.709
211.02	17.304
211.24	14.605
211.45	14.348
211.66	18.830
211.88	22.100
212.09	21.992
212.31	20.597
212.52	23.746
212.74	22.453
212.95	20.528
213.17	21.192
213.38	22.585
213.60	24.466
213.81	24.140
214.02	20.333
214.24	19.879
214.45	18.783
214.67	19.325
214.88	19.378
215.10	18.475
215.31	17.189
215.53	15.076
215.74	13.436
215.95	14.254
216.17	12.419
216.38	10.259
216.60	9.444
216.81	7.918
217.03	5.677
217.24	4.713
217.45	4.676
217.67	5.145
217.88	6.390
218.10	6.205
218.31	4.324
218.53	7.653
218.74	7.177
218.95	5.626
219.17	4.804
219.38	4.649
219.60	6.938
219.81	7.917
220.03	7.593
220.24	8.001
220.45	7.937
220.67	9.522
220.88	9.081
221.10	9.817
221.31	9.849
221.53	11.263
221.74	9.763
221.95	8.597
222.17	6.875
222.38	7.055
222.60	6.879
222.81	6.391
223.02	4.991
223.24	4.671
223.45	5.285
223.67	5.157
223.88	5.045
224.09	6.475
224.31	6.413
224.52	7.446
224.74	6.818
224.95	7.337
225.16	7.161
225.38	7.179
225.59	6.731
225.81	6.184
226.02	5.823
226.23	5.440
226.45	5.245
226.66	4.866
226.88	4.783
227.09	4.832
227.30	4.385
227.52	4.453
227.73	4.282
227.95	4.108
228.16	4.134
228.37	4.183
228.59	4.190
228.80	4.192
229.02	4.160
229.23	4.164
229.44	4.095
229.66	4.081
229.87	4.057
230.08	4.031
230.30	4.097
230.51	4.109
230.73	4.143
230.94	4.158
231.15	3.903
231.37	4.026
231.58	3.961
231.80	4.058
232.01	4.219
232.22	4.232
232.44	4.504
232.65	4.525
232.86	4.393
233.08	4.412
233.29	4.148
233.51	4.662
233.72	4.496
233.93	4.455
234.15	4.353
234.36	4.142
234.57	4.148
234.79	4.311
235.00	4.469
235.21	4.633
235.43	4.630
235.64	4.623
235.86	4.338
236.07	4.216
236.28	3.999
236.50	4.079
236.71	4.500
236.92	4.631
237.14	4.490
237.35	4.656
237.56	4.628
237.78	4.544
237.99	4.705
238.20	4.932
238.42	5.469
238.63	5.662
238.84	5.896
239.06	5.557
239.27	5.366
239.48	5.350
239.70	4.968
239.91	4.739
240.13	4.624
240.34	4.759
240.55	4.606
240.77	4.458
240.98	4.450
241.19	4.360
241.41	4.212
241.62	4.125
241.83	4.006
242.05	4.019
242.26	4.098
242.47	4.108
242.69	4.034
242.90	4.081
243.11	4.091
243.33	4.024
243.54	3.981
243.75	4.108
243.97	4.184
244.18	4.435
244.39	4.646
244.61	4.479
244.82	4.612
245.03	4.655
245.24	4.598
245.46	4.541
245.67	4.582
245.88	4.557
246.10	4.522
246.31	4.464
246.52	4.311
246.74	4.264
246.95	4.293
247.16	4.300
247.38	4.289
247.59	4.294
247.80	4.311
248.02	4.325
248.23	4.279
248.44	4.277
248.66	4.284
248.87	4.382
249.08	4.445
249.29	4.557
249.51	4.592
249.72	4.753
249.93	4.858
250.15	4.875
250.36	4.807
250.57	4.849
250.79	4.960
251.00	5.049
251.21	5.058
251.42	4.916
251.64	4.751
251.85	4.827
252.06	4.784
252.28	4.698
252.49	4.627
252.70	4.623
252.91	4.629
253.13	4.522
253.34	4.477
253.55	4.420
253.77	4.558
253.98	4.874
254.19	4.750
254.40	4.667
254.62	4.849
254.83	4.831
255.04	4.896
255.26	5.053
255.47	5.008
255.68	4.962
255.89	5.044
256.11	5.042
256.32	4.725
256.53	4.846
256.75	4.761
256.96	4.662
257.17	4.798
257.38	4.845
257.60	4.797
257.81	4.757
258.02	4.783
258.23	4.543
258.45	4.409
258.66	4.394
258.87	4.186
259.09	4.160
259.30	4.123
259.51	4.075
259.72	4.053
259.94	4.051
260.15	4.067
260.36	4.104
260.57	4.152
260.79	4.167
261.00	4.147
261.21	4.256
261.42	4.347
261.64	4.405
261.85	4.452
262.06	4.547
262.27	4.631
262.49	4.747
262.70	4.654
262.91	4.651
263.12	4.701
263.34	4.770
263.55	4.618
263.76	4.496
263.97	4.636
264.19	4.813
264.40	4.672
264.61	4.705
264.82	4.455
265.04	4.474
265.25	4.455
265.46	4.335
265.67	4.289
265.88	4.364
266.10	4.293
266.31	4.171
266.52	4.024
266.73	4.114
266.95	4.039
267.16	4.098
267.37	4.012
267.58	3.943
267.80	4.046
268.01	4.042
268.22	3.980
268.43	4.082
268.64	4.074
268.86	4.105
269.07	4.022
269.28	4.022
269.49	4.078
269.71	4.223
269.92	4.153
270.13	4.092
270.34	4.132
270.55	4.196
270.77	4.263
270.98	4.234
271.19	4.261
271.40	4.198
271.61	4.153
271.83	4.091
272.04	3.940
272.25	4.085
272.46	4.092
272.68	4.083
272.89	4.047
273.10	3.961
273.31	3.991
273.52	3.980
273.74	3.991
273.95	4.022
274.16	4.095
274.37	4.101
274.58	4.067
274.80	4.016
275.01	4.034
275.22	4.043
275.43	4.145
275.64	4.169
275.86	4.183
276.07	4.128
276.28	4.223
276.49	4.197
276.70	4.222
276.91	4.286
277.13	4.197
277.34	4.142
277.55	4.173
277.76	4.076
277.97	4.059
278.19	4.031
278.40	4.171
278.61	4.055
278.82	3.994
279.03	4.051
279.24	4.010
279.46	4.126
279.67	4.114
279.88	4.069
280.09	4.130
280.30	4.154
280.52	4.232
280.73	4.186
280.94	4.223
281.15	4.209
281.36	4.239
281.57	4.320
281.79	4.336
282.00	4.440
282.21	4.425
282.42	4.425
282.63	4.486
282.84	4.436
283.06	4.388
283.27	4.348
283.48	4.358
283.69	4.269
283.90	4.207
284.11	4.164
284.32	4.043
284.54	4.070
284.75	3.964
284.96	3.861
285.17	3.951
285.38	4.007
285.59	4.002
285.81	4.094
286.02	4.224
286.23	4.197
286.44	4.263
286.65	4.400
286.86	4.409
287.07	4.498
287.29	4.480
287.50	4.458
287.71	4.451
287.92	4.510
288.13	4.495
288.34	4.481
288.55	4.537
288.77	4.555
288.98	4.476
289.19	4.505
289.40	4.549
289.61	4.726
289.82	4.689
290.03	4.706
290.24	4.757
290.46	4.855
290.67	4.931
290.88	5.000
291.09	5.028
291.30	5.120
291.51	5.172
291.72	5.289
291.93	5.322
292.15	5.359
292.36	5.565
292.57	5.619
292.78	5.608
292.99	5.507
293.20	5.601
293.41	5.603
293.62	5.644
293.84	5.778
294.05	5.757
294.26	5.755
294.47	5.900
294.68	5.899
294.89	6.025
295.10	5.993
295.31	6.094
295.52	6.081
295.73	6.074
295.95	6.075
296.16	6.067
296.37	6.171
296.58	6.229
296.79	6.232
297.00	6.245
297.21	6.222
297.42	6.235
297.63	6.272
297.84	6.281
298.06	6.322
298.27	6.373
298.48	6.457
298.69	6.341
298.90	6.394
299.11	6.470
299.32	6.529
299.53	6.603
299.74	6.713
299.95	6.784
300.16	6.789
300.38	6.837
300.59	6.852
300.80	6.830
301.01	6.994
301.22	6.947
301.43	6.874
301.64	6.863
301.85	6.820
302.06	6.868
302.27	6.837
302.48	6.983
302.69	7.038
302.91	7.083
303.12	7.140
303.33	7.140
303.54	7.228
303.75	7.273
303.96	7.377
304.17	7.450
304.38	7.466
304.59	7.531
304.80	7.504
305.01	7.514
305.22	7.579
305.43	7.583
305.64	7.639
305.85	7.606
306.06	7.694
306.28	7.695
306.49	7.733
306.70	7.719
306.91	7.735
307.12	7.736
307.33	7.751
307.54	7.787
307.75	7.863
307.96	7.886
308.17	7.958
308.38	7.951
308.59	7.981
308.80	7.995
309.01	8.161
309.22	8.211
309.43	8.241
309.64	8.361
309.85	8.416
310.06	8.426
310.27	8.492
310.48	8.579
310.70	8.626
310.91	8.680
311.12	8.722
311.33	8.668
311.54	8.694
311.75	8.720
311.96	8.723
312.17	8.762
312.38	8.846
312.59	8.871
312.80	8.901
313.01	8.986
313.22	9.058
313.43	9.181
313.64	9.288
313.85	9.329
314.06	9.487
314.27	9.623
314.48	9.768
314.69	9.828
314.90	9.961
315.11	9.970
315.32	10.068
315.53	10.143
315.74	10.089
315.95	10.127
316.16	10.227
316.37	10.174
316.58	10.253
316.79	10.219
317.00	10.318
317.21	10.267
317.42	10.308
317.63	10.291
317.84	10.278
318.05	10.335
318.26	10.321
318.47	10.310
318.68	10.485
318.89	10.510
319.10	10.555
319.31	10.551
319.52	10.738
319.73	10.874
319.94	10.970
320.15	11.054
320.36	11.242
320.57	11.352
320.78	11.455
320.99	11.427
321.20	11.469
321.41	11.542
321.62	11.545
321.83	11.512
322.04	11.628
322.25	11.672
322.46	11.735
322.67	11.712
322.88	11.760
323.09	11.819
323.30	11.888
323.51	11.906
323.72	11.977
323.93	12.019
324.14	12.167
324.35	12.189
324.56	12.302
324.77	12.328
324.98	12.348
325.19	12.430
325.40	12.542
325.61	12.638
325.82	12.711
326.03	12.744
326.24	12.805
326.45	12.839
326.65	12.798
326.86	12.788
327.07	12.887
327.28	12.941
327.49	13.001
327.70	12.952
327.91	13.016
328.12	13.034
328.33	13.035
328.54	13.181
328.75	13.198
328.96	13.308
329.17	13.366
329.38	13.360
329.59	13.434
329.80	13.480
330.01	13.607
330.22	13.654
330.43	13.738
330.64	13.857
330.85	13.920
331.05	13.918
331.26	13.968
331.47	14.024
331.68	14.107
331.89	14.214
332.10	14.229
332.31	14.299
332.52	14.348
332.73	14.397
332.94	14.450
333.15	14.407
333.36	14.545
333.57	14.590
333.78	14.658
333.99	14.726
334.19	14.787
334.40	14.884
334.61	14.994
334.82	15.077
335.03	15.104
335.24	15.180
335.45	15.272
335.66	15.328
335.87	15.403
336.08	15.477
336.29	15.532
336.50	15.549
336.71	15.632
336.91	15.649
337.12	15.628
337.33	15.743
337.54	15.807
337.75	15.868
337.96	15.900
338.17	15.971
338.38	16.003
338.59	16.065
338.80	16.041
339.01	16.087
339.21	16.089
339.42	16.187
339.63	16.210
339.84	16.297
340.05	16.406
340.26	16.369
340.47	16.420
340.68	16.491
340.89	16.493
341.10	16.549
341.30	16.595
341.51	16.640
341.72	16.724
341.93	16.792
342.14	16.748
342.35	16.745
342.56	16.881
342.77	16.887
342.98	16.886
343.18	16.937
343.39	17.037
343.60	17.062
343.81	17.123
344.02	17.149
344.23	17.211
344.44	17.256
344.65	17.315
344.85	17.310
345.06	17.382
345.27	17.420
345.48	17.498
345.69	17.600
345.90	17.681
346.11	17.709
346.32	17.767
346.52	17.754
346.73	17.784
346.94	17.783
347.15	17.896
347.36	17.923
347.57	18.028
347.78	18.063
347.98	18.074
348.19	18.084
348.40	18.184
348.61	18.209
348.82	18.287
349.03	18.409
349.24	18.569
349.44	18.560
349.65	18.612
349.86	18.655
350.07	18.771
350.28	18.808
350.49	18.887
350.70	18.845
350.90	18.873
351.11	18.916
351.32	18.942
351.53	18.925
351.74	18.953
351.95	18.967
352.15	18.999
352.36	18.937
352.57	18.973
352.78	19.024
352.99	19.106
353.20	19.204
353.40	19.285
353.61	19.319
353.82	19.374
354.03	19.480
354.24	19.558
354.45	19.650
354.65	19.788
354.86	19.826
355.07	19.827
355.28	19.952
355.49	19.987
355.70	20.007
355.90	20.036
356.11	20.042
356.32	20.098
356.53	20.147
356.74	20.165
356.94	20.181
357.15	20.267
357.36	20.337
357.57	20.365
357.78	20.391
357.99	20.408
358.19	20.462
358.40	20.556
358.61	20.604
358.82	20.708
359.03	20.770
359.23	20.876
359.44	20.945
359.65	20.979
359.86	21.076
360.07	21.184
360.27	21.262
360.48	21.351
360.69	21.422
360.90	21.480
361.11	21.555
361.31	21.606
361.52	21.632
361.73	21.664
361.94	21.765
362.15	21.736
362.35	21.712
362.56	21.777
362.77	21.786
362.98	21.795
363.18	21.787
363.39	21.756
363.60	21.798
363.81	21.799
364.02	21.858
364.22	21.877
364.43	21.915
364.64	21.964
364.85	21.958
365.05	22.024
365.26	22.054
365.47	22.185
365.68	22.254
365.89	22.267
366.09	22.352
366.30	22.383
366.51	22.430
366.72	22.450
366.92	22.520
367.13	22.626
367.34	22.663
367.55	22.689
367.75	22.695
367.96	22.721
368.17	22.794
368.38	22.822
368.58	22.818
368.79	22.855
369.00	22.945
369.21	22.999
369.41	23.002
369.62	23.024
369.83	23.061
370.04	23.088
370.24	23.166
370.45	23.191
370.66	23.227
370.87	23.282
371.07	23.315
371.28	23.370
371.49	23.406
371.70	23.455
371.90	23.543
372.11	23.629
372.32	23.696
372.53	23.745
372.73	23.808
372.94	23.823
373.15	23.903
373.36	23.954
373.56	24.019
373.77	24.049
373.98	24.115
374.19	24.129
374.39	24.174
374.60	24.216
374.81	24.225
375.01	24.307
375.22	24.358
375.43	24.422
375.64	24.432
375.84	24.470
376.05	24.541
376.26	24.591
376.46	24.641
376.67	24.704
376.88	24.714
377.09	24.768
377.29	24.778
377.50	24.867
377.71	24.882
377.91	24.988
378.12	25.027
378.33	25.076
378.54	25.102
378.74	25.131
378.95	25.123
379.16	25.234
379.36	25.281
379.57	25.324
379.78	25.334
379.99	25.369
380.19	25.324
380.40	25.354
380.61	25.387
380.81	25.432
381.02	25.480
381.23	25.546
381.43	25.563
381.64	25.606
381.85	25.620
382.05	25.677
382.26	25.753
382.47	25.873
382.67	25.896
382.88	25.921
383.09	26.014
383.30	26.084
383.50	26.161
383.71	26.192
383.92	26.233
384.12	26.306
384.33	26.326
384.54	26.368
384.74	26.407
384.95	26.493
385.16	26.556
385.36	26.566
385.57	26.624
385.78	26.654
385.98	26.734
386.19	26.798
386.40	26.858
386.60	26.954
386.81	26.984
387.02	27.058
387.22	27.067
387.43	27.121
387.64	27.168
387.84	27.158
388.05	27.239
388.26	27.251
388.46	27.267
388.67	27.329
388.88	27.332
389.08	27.383
389.29	27.396
389.49	27.469
389.70	27.493
389.91	27.519
390.11	27.600
390.32	27.612
390.53	27.670
390.73	27.779
390.94	27.853
391.15	27.949
391.35	27.979
391.56	28.092
391.77	28.138
391.97	28.228
392.18	28.300
392.38	28.352
392.59	28.440
392.80	28.492
393.00	28.480
393.21	28.478
393.42	28.502
393.62	28.630
393.83	28.646
394.04	28.678
394.24	28.682
394.45	28.717
394.65	28.755
394.86	28.777
395.07	28.858
395.27	28.889
395.48	28.945
395.68	28.980
395.89	28.953
396.10	29.014
396.30	29.085
396.51	29.147
396.72	29.204
396.92	29.230
397.13	29.278
397.33	29.293
397.54	29.366
397.75	29.440
397.95	29.489
398.16	29.545
398.36	29.556
398.57	29.605
398.78	29.673
398.98	29.731
399.19	29.821
399.39	29.873
399.60	29.920
399.81	29.976
400.01	30.016
400.22	30.110
400.42	30.209
400.63	30.267
400.84	30.316
401.04	30.367
401.25	30.406
401.45	30.488
401.66	30.517
401.86	30.566
402.07	30.621
402.28	30.691
402.48	30.689
402.69	30.731
402.89	30.787
403.10	30.825
403.31	30.835
403.51	30.878
403.72	30.928
403.92	31.011
404.13	31.073
404.33	31.118
404.54	31.137
404.75	31.219
404.95	31.267
405.16	31.312
405.36	31.376
405.57	31.459
405.77	31.516
405.98	31.531
406.18	31.528
406.39	31.542
406.60	31.576
406.80	31.582
407.01	31.626
407.21	31.626
407.42	31.682
407.62	31.672
407.83	31.674
408.03	31.688
408.24	31.722
408.45	31.776
408.65	31.871
408.86	31.915
409.06	31.990
409.27	32.036
409.47	32.103
409.68	32.127
409.88	32.236
410.09	32.300
410.29	32.366
410.50	32.413
410.71	32.475
410.91	32.488
411.12	32.533
411.32	32.591
411.53	32.616
411.73	32.667
411.94	32.671
412.14	32.691
412.35	32.715
412.55	32.754
412.76	32.768
412.96	32.834
413.17	32.881
413.37	32.927
413.58	32.963
413.78	33.018
413.99	33.044
414.19	33.171
414.40	33.231
414.61	33.294
414.81	33.353
415.02	33.404
415.22	33.412
415.43	33.493
415.63	33.550
415.84	33.617
416.04	33.685
416.25	33.755
416.45	33.771
416.66	33.823
416.86	33.886
417.07	33.908
417.27	33.963
417.48	34.008
417.68	34.032
417.89	34.083
418.09	34.146
418.30	34.163
418.50	34.190
418.71	34.237
418.91	34.309
419.12	34.360
419.32	34.438
419.53	34.523
419.73	34.614
419.94	34.668
420.14	34.691
420.34	34.696
420.55	34.719
420.75	34.741
420.96	34.768
421.16	34.772
421.37	34.799
421.57	34.841
421.78	34.860
421.98	34.883
422.19	34.910
422.39	34.976
422.60	35.063
422.80	35.130
423.01	35.178
423.21	35.217
423.42	35.232
423.62	35.249
423.83	35.240
424.03	35.223
424.23	35.224
424.44	35.243
424.64	35.268
424.85	35.269
425.05	35.302
425.26	35.364
425.46	35.419
425.67	35.491
425.87	35.546
426.08	35.617
426.28	35.692
426.48	35.774
426.69	35.826
426.89	35.869
427.10	35.924
427.30	35.983
427.51	36.005
427.71	36.028
427.92	35.985
428.12	36.023
428.32	36.028
428.53	36.078
428.73	36.084
428.94	36.107
429.14	36.133
429.35	36.157
429.55	36.172
429.76	36.194
429.96	36.215
430.16	36.284
430.37	36.287
430.57	36.325
430.78	36.359
430.98	36.419
431.19	36.465
431.39	36.481
431.59	36.489
431.80	36.504
432.00	36.502
432.21	36.505
432.41	36.503
432.61	36.512
432.82	36.536
433.02	36.552
433.23	36.557
433.43	36.590
433.64	36.625
433.84	36.673
434.04	36.723
434.25	36.807
434.45	36.870
434.66	36.972
434.86	37.048
435.06	37.101
435.27	37.145
435.47	37.204
435.68	37.238
435.88	37.284
436.08	37.286
436.29	37.286
436.49	37.272
436.70	37.302
436.90	37.293
437.10	37.363
437.31	37.417
437.51	37.450
437.71	37.469
437.92	37.479
438.12	37.500
438.33	37.553
438.53	37.583
438.73	37.604
438.94	37.609
439.14	37.669
439.35	37.672
439.55	37.693
439.75	37.727
439.96	37.771
440.16	37.831
440.36	37.857
440.57	37.858
440.77	37.901
440.97	37.955
441.18	38.032
441.38	38.052
441.59	38.103
441.79	38.157
441.99	38.206
442.20	38.231
442.40	38.253
442.60	38.295
442.81	38.391
443.01	38.426
443.21	38.436
443.42	38.431
443.62	38.476
443.83	38.465
444.03	38.453
444.23	38.456
444.44	38.476
444.64	38.485
444.84	38.497
445.05	38.486
445.25	38.479
445.45	38.503
445.66	38.496
445.86	38.470
446.06	38.491
446.27	38.515
446.47	38.549
446.67	38.565
446.88	38.609
447.08	38.645
447.28	38.694
447.49	38.759
447.69	38.794
447.89	38.862
448.10	38.934
448.30	38.996
448.50	39.025
448.71	39.042
448.91	39.057
449.11	39.026
449.32	39.032
449.52	39.041
449.72	39.050
449.93	39.066
450.13	39.110
450.33	39.157
450.53	39.130
450.74	39.136
450.94	39.173
451.14	39.208
451.35	39.260
451.55	39.283
451.75	39.278
451.96	39.267
452.16	39.274
452.36	39.272
452.57	39.280
452.77	39.305
452.97	39.348
453.17	39.363
453.38	39.413
453.58	39.422
453.78	39.421
453.99	39.438
454.19	39.500
454.39	39.545
454.59	39.582
454.80	39.579
455.00	39.637
455.20	39.651
455.41	39.667
455.61	39.668
455.81	39.743
456.01	39.791
456.22	39.847
456.42	39.832
456.62	39.877
456.83	39.883
457.03	39.914
457.23	39.904
457.43	39.948
457.64	39.980
457.84	39.982
458.04	40.019
458.25	40.069
458.45	40.146
458.65	40.177
458.85	40.165
459.06	40.141
459.26	40.137
459.46	40.128
459.66	40.107
459.87	40.098
460.07	40.120
460.27	40.107
460.47	40.092
460.68	40.076
460.88	40.053
461.08	40.094
461.28	40.147
461.49	40.170
461.69	40.227
461.89	40.270
462.09	40.307
462.30	40.332
462.50	40.345
462.70	40.379
462.90	40.372
463.11	40.443
463.31	40.438
463.51	40.456
463.71	40.504
463.92	40.549
464.12	40.577
464.32	40.612
464.52	40.632
464.72	40.665
464.93	40.679
465.13	40.714
465.33	40.734
465.53	40.728
465.74	40.722
465.94	40.685
466.14	40.649
466.34	40.630
466.54	40.591
466.75	40.575
466.95	40.545
467.15	40.534
467.35	40.501
467.56	40.503
467.76	40.543
467.96	40.579
468.16	40.637
468.36	40.672
468.57	40.737
468.77	40.792
468.97	40.816
469.17	40.865
469.37	40.922
469.58	40.981
469.78	41.010
469.98	41.028
470.18	41.063
470.38	41.072
470.59	41.106
470.79	41.139
470.99	41.190
471.19	41.242
471.39	41.298
471.60	41.311
471.80	41.329
472.00	41.345
472.20	41.342
472.40	41.333
472.61	41.333
472.81	41.328
473.01	41.311
473.21	41.319
473.41	41.332
473.61	41.301
473.82	41.325
474.02	41.348
474.22	41.386
474.42	41.421
474.62	41.463
474.82	41.558
475.03	41.649
475.23	41.683
475.43	41.733
475.63	41.781
475.83	41.834
476.03	41.854
476.24	41.850
476.44	41.870
476.64	41.912
476.84	41.928
477.04	41.913
477.24	41.894
477.45	41.901
477.65	41.903
477.85	41.891
478.05	41.896
478.25	41.898
478.45	41.931
478.65	41.961
478.86	41.951
479.06	41.978
479.26	41.997
479.46	42.024
479.66	42.064
479.86	42.081
480.06	42.115
480.27	42.133
480.47	42.156
480.67	42.192
480.87	42.196
481.07	42.234
481.27	42.295
481.47	42.346
481.68	42.421
481.88	42.539
482.08	42.713
482.28	42.936
482.48	43.150
482.68	43.323
482.88	43.593
483.08	44.142
483.29	44.409
483.49	44.193
483.69	43.982
483.89	43.862
484.09	43.780
484.29	43.688
484.49	43.612
484.69	43.545
484.89	43.476
485.10	43.304
485.30	42.786
485.50	42.398
485.70	42.503
485.90	42.720
486.10	42.898
486.30	43.025
486.50	43.152
486.70	43.223
486.90	43.248
487.11	43.261
487.31	43.252
487.51	43.239
487.71	43.180
487.91	43.138
488.11	43.097
488.31	43.053
488.51	43.016
488.71	42.977
488.91	42.953
489.11	42.968
489.32	43.002
489.52	43.046
489.72	43.124
489.92	43.249
490.12	43.408
490.32	43.524
490.52	43.576
490.72	43.567
490.92	43.536
491.12	43.478
491.32	43.409
491.52	43.361
491.72	43.314
491.92	43.271
492.13	43.224
492.33	43.147
492.53	43.093
492.73	43.065
492.93	43.069
493.13	43.086
493.33	43.129
493.53	43.189
493.73	43.227
493.93	43.284
494.13	43.304
494.33	43.312
494.53	43.341
494.73	43.376
494.93	43.382
495.13	43.411
495.33	43.460
495.53	43.479
495.73	43.524
495.94	43.543
496.14	43.558
496.34	43.585
496.54	43.601
496.74	43.641
496.94	43.663
497.14	43.674
497.34	43.666
497.54	43.655
497.74	43.680
497.94	43.694
498.14	43.705
498.34	43.716
498.54	43.734
498.74	43.729
498.94	43.711
499.14	43.721
499.34	43.748
499.54	43.770
499.74	43.782
499.94	43.790
500.14	43.802
500.34	43.825
500.54	43.826
500.74	43.826
500.94	43.869
501.14	43.898
501.34	43.885
501.54	43.889
501.74	43.888
501.94	43.928
502.14	43.931
502.34	43.929
502.54	43.944
502.74	43.949
502.94	43.973
503.14	43.986
503.34	43.984
503.54	44.028
503.74	44.026
503.94	44.046
504.14	44.042
504.34	44.058
504.54	44.053
504.74	44.070
504.94	44.097
505.14	44.128
505.34	44.148
505.54	44.191
505.74	44.195
505.94	44.218
506.14	44.254
506.34	44.289
506.54	44.312
506.74	44.362
506.94	44.375
507.14	44.395
507.34	44.392
507.54	44.381
507.74	44.377
507.94	44.403
508.14	44.399
508.34	44.410
508.54	44.402
508.74	44.438
508.94	44.440
509.13	44.457
509.33	44.499
509.53	44.554
509.73	44.599
509.93	44.643
510.13	44.675
510.33	44.707
510.53	44.729
510.73	44.744
510.93	44.748
511.13	44.777
511.33	44.815
511.53	44.803
511.73	44.770
511.93	44.757
512.13	44.732
512.33	44.722
512.53	44.740
512.73	44.723
512.92	44.757
513.12	44.756
513.32	44.764
513.52	44.758
513.72	44.786
513.92	44.811
514.12	44.840
514.32	44.862
514.52	44.878
514.72	44.882
514.92	44.903
515.12	44.917
515.32	44.938
515.52	44.952
515.71	44.966
515.91	44.973
516.11	45.009
516.31	45.043
516.51	45.067
516.71	45.097
516.91	45.145
517.11	45.191
517.31	45.226
517.51	45.249
517.71	45.265
517.90	45.254
518.10	45.245
518.30	45.211
518.50	45.214
518.70	45.207
518.90	45.208
519.10	45.200
519.30	45.208
519.50	45.206
519.69	45.210
519.89	45.223
520.09	45.260
520.29	45.298
520.49	45.352
520.69	45.376
520.89	45.416
521.09	45.408
521.29	45.414
521.48	45.410
521.68	45.394
521.88	45.409
522.08	45.396
522.28	45.398
522.48	45.386
522.68	45.386
522.88	45.383
523.07	45.433
523.27	45.487
523.47	45.516
523.67	45.547
523.87	45.596
524.07	45.627
524.27	45.692
524.47	45.734
524.66	45.734
524.86	45.746
525.06	45.746
525.26	45.714
525.46	45.708
525.66	45.723
525.85	45.740
526.05	45.741
526.25	45.767
526.45	45.803
526.65	45.885
526.85	46.048
527.05	46.259
527.24	46.438
527.44	46.549
527.64	46.625
527.84	46.663
528.04	46.638
528.24	46.575
528.43	46.500
528.63	46.437
528.83	46.370
529.03	46.284
529.23	46.174
529.43	46.084
529.62	46.008
529.82	45.924
530.02	45.835
530.22	45.791
530.42	45.809
530.62	45.851
530.81	45.876
531.01	45.911
531.21	45.983
531.41	46.050
531.61	46.169
531.80	46.278
532.00	46.333
532.20	46.377
532.40	46.378
532.60	46.365
532.79	46.326
532.99	46.281
533.19	46.259
533.39	46.211
533.59	46.166
533.78	46.091
533.98	46.016
534.18	45.994
534.38	45.981
534.58	45.987
534.77	46.009
534.97	46.082
535.17	46.198
535.37	46.260
535.57	46.318
535.76	46.351
535.96	46.335
536.16	46.322
536.36	46.284
536.56	46.249
536.75	46.233
536.95	46.204
537.15	46.165
537.35	46.112
537.54	46.095
537.74	46.085
537.94	46.114
538.14	46.161
538.34	46.210
538.53	46.273
538.73	46.321
538.93	46.368
539.13	46.453
539.32	46.556
539.52	46.679
539.72	46.824
539.92	46.947
540.11	46.981
540.31	46.989
540.51	46.955
540.71	46.884
540.90	46.792
541.10	46.728
541.30	46.673
541.50	46.627
541.69	46.578
541.89	46.512
542.09	46.461
542.29	46.426
542.48	46.393
542.68	46.392
542.88	46.411
543.08	46.472
543.27	46.523
543.47	46.572
543.67	46.579
543.87	46.595
544.06	46.587
544.26	46.570
544.46	46.583
544.65	46.593
544.85	46.604
545.05	46.633
545.25	46.659
545.44	46.664
545.64	46.666
545.84	46.693
546.04	46.687
546.23	46.664
546.43	46.630
546.63	46.613
546.82	46.587
547.02	46.596
547.22	46.592
547.42	46.573
547.61	46.580
547.81	46.584
548.01	46.564
548.20	46.577
548.40	46.629
548.60	46.678
548.79	46.697
548.99	46.739
549.19	46.707
549.39	46.694
549.58	46.712
549.78	46.699
549.98	46.677
550.17	46.692
550.37	46.683
550.57	46.673
550.76	46.656
550.96	46.692
551.16	46.719
551.35	46.749
551.55	46.777
551.75	46.798
551.94	46.809
552.14	46.811
552.34	46.787
552.53	46.785
552.73	46.765
552.93	46.790
553.13	46.761
553.32	46.753
553.52	46.761
553.72	46.744
553.91	46.725
554.11	46.723
554.31	46.773
554.50	46.787
554.70	46.817
554.89	46.845
555.09	46.857
555.29	46.870
555.48	46.870
555.68	46.880
555.88	46.892
556.07	46.907
556.27	46.936
556.47	46.898
556.66	46.923
556.86	46.943
557.06	46.948
557.25	46.935
557.45	46.950
557.65	46.941
557.84	46.930
558.04	46.926
558.23	46.919
558.43	46.913
558.63	46.915
558.82	46.910
559.02	46.877
559.22	46.893
559.41	46.910
559.61	46.914
559.81	46.937
560.00	46.975
560.20	46.984
560.39	47.001
560.59	47.042
560.79	47.067
560.98	47.084
561.18	47.107
561.37	47.110
561.57	47.126
561.77	47.127
561.96	47.129
562.16	47.131
562.36	47.178
562.55	47.210
562.75	47.208
562.94	47.232
563.14	47.247
563.34	47.248
563.53	47.242
563.73	47.264
563.92	47.299
564.12	47.345
564.32	47.368
564.51	47.398
564.71	47.411
564.90	47.420
565.10	47.426
565.29	47.447
565.49	47.452
565.69	47.469
565.88	47.432
566.08	47.423
566.27	47.371
566.47	47.346
566.67	47.323
566.86	47.315
567.06	47.295
567.25	47.271
567.45	47.267
567.64	47.263
567.84	47.281
568.04	47.335
568.23	47.342
568.43	47.390
568.62	47.426
568.82	47.428
569.01	47.447
569.21	47.464
569.41	47.533
569.60	47.535
569.80	47.598
569.99	47.598
570.19	47.621
570.38	47.640
570.58	47.654
570.77	47.662
570.97	47.678
571.17	47.654
571.36	47.671
571.56	47.641
571.75	47.626
571.95	47.611
572.14	47.632
572.34	47.645
572.53	47.658
572.73	47.656
572.92	47.666
573.12	47.669
573.31	47.722
573.51	47.735
573.70	47.743
573.90	47.780
574.10	47.769
574.29	47.760
574.49	47.727
574.68	47.726
574.88	47.716
575.07	47.688
575.27	47.687
575.46	47.665
575.66	47.659
575.85	47.676
576.05	47.667
576.24	47.652
576.44	47.673
576.63	47.684
576.83	47.681
577.02	47.708
577.22	47.702
577.41	47.699
577.61	47.701
577.80	47.704
578.00	47.689
578.19	47.700
578.39	47.723
578.58	47.705
578.78	47.720
578.97	47.716
579.17	47.698
579.36	47.722
579.56	47.750
579.75	47.733
579.95	47.736
580.14	47.705
580.34	47.685
580.53	47.704
580.73	47.687
580.92	47.696
581.12	47.673
581.31	47.666
581.51	47.659
581.70	47.639
581.89	47.646
582.09	47.620
582.28	47.668
582.48	47.695
582.67	47.714
582.87	47.731
583.06	47.711
583.26	47.723
583.45	47.743
583.65	47.748
583.84	47.757
584.04	47.762
584.23	47.787
584.43	47.782
584.62	47.788
584.81	47.777
585.01	47.794
585.20	47.768
585.40	47.778
585.59	47.792
585.79	47.831
585.98	47.848
586.18	47.863
586.37	47.876
586.56	47.875
586.76	47.860
586.95	47.856
587.15	47.870
587.34	47.885
587.54	47.921
587.73	47.927
587.92	47.882
588.12	47.880
588.31	47.917
588.51	47.918
588.70	47.928
588.90	47.946
589.09	47.966
589.28	47.955
589.48	47.974
589.67	47.943
589.87	47.933
590.06	48.001
590.25	47.987
590.45	47.975
590.64	47.956
590.84	47.973
591.03	47.991
591.23	47.976
591.42	47.977
591.61	48.002
591.81	48.047
592.00	48.079
592.20	48.059
592.39	48.102
592.58	48.102
592.78	48.110
592.97	48.103
593.17	48.083
593.36	48.095
593.55	48.129
593.75	48.118
593.94	48.106
594.13	48.097
594.33	48.123
594.52	48.132
594.72	48.129
594.91	48.200
595.10	48.242
595.30	48.312
595.49	48.384
595.68	48.424
595.88	48.475
596.07	48.493
596.27	48.489
596.46	48.439
596.65	48.383
596.85	48.364
597.04	48.332
597.23	48.300
597.43	48.253
597.62	48.223
597.81	48.191
598.01	48.180
598.20	48.178
598.40	48.180
598.59	48.194
598.78	48.231
598.98	48.263
599.17	48.264
599.36	48.289
599.56	48.318
599.75	48.285
599.94	48.298
600.14	48.297
600.33	48.293
600.52	48.304
600.72	48.351
600.91	48.348
601.10	48.377
601.30	48.403
601.49	48.412
601.68	48.436
601.88	48.477
602.07	48.485
602.26	48.490
602.46	48.514
602.65	48.531
602.84	48.532
603.04	48.607
603.23	48.624
603.42	48.668
603.62	48.685
603.81	48.646
604.00	48.643
604.20	48.614
604.39	48.611
604.58	48.573
604.77	48.562
604.97	48.559
605.16	48.509
605.35	48.484
605.55	48.469
605.74	48.454
605.93	48.497
606.13	48.503
606.32	48.518
606.51	48.510
606.70	48.590
606.90	48.613
607.09	48.619
607.28	48.637
607.48	48.660
607.67	48.662
607.86	48.719
608.05	48.743
608.25	48.777
608.44	48.782
608.63	48.798
608.83	48.740
609.02	48.718
609.21	48.702
609.40	48.698
609.60	48.692
609.79	48.651
609.98	48.606
610.17	48.569
610.37	48.513
610.56	48.527
610.75	48.505
610.95	48.521
611.14	48.520
611.33	48.526
611.52	48.533
611.72	48.546
611.91	48.562
612.10	48.573
612.29	48.548
612.49	48.555
612.68	48.547
612.87	48.552
613.06	48.544
613.26	48.562
613.45	48.582
613.64	48.564
613.83	48.530
614.03	48.531
614.22	48.493
614.41	48.521
614.60	48.520
614.79	48.548
614.99	48.554
615.18	48.545
615.37	48.552
615.56	48.530
615.76	48.559
615.95	48.565
616.14	48.549
616.33	48.595
616.53	48.604
616.72	48.615
616.91	48.581
617.10	48.569
617.29	48.586
617.49	48.575
617.68	48.572
617.87	48.577
618.06	48.591
618.25	48.589
618.45	48.582
618.64	48.572
618.83	48.609
619.02	48.615
619.21	48.633
619.41	48.625
619.60	48.647
619.79	48.653
619.98	48.615
620.17	48.614
620.37	48.643
620.56	48.649
620.75	48.638
620.94	48.608
621.13	48.577
621.33	48.559
621.52	48.583
621.71	48.592
621.90	48.637
622.09	48.653
622.28	48.657
622.48	48.654
622.67	48.644
622.86	48.657
623.05	48.658
623.24	48.672
623.44	48.687
623.63	48.688
623.82	48.673
624.01	48.660
624.20	48.697
624.39	48.718
624.59	48.742
624.78	48.776
624.97	48.858
625.16	48.912
625.35	48.976
625.54	49.006
625.73	49.029
625.93	49.033
626.12	49.040
626.31	49.033
626.50	49.020
626.69	49.010
626.88	48.981
627.07	48.964
627.27	48.935
627.46	48.890
627.65	48.888
627.84	48.893
628.03	48.887
628.22	48.890
628.41	48.901
628.61	48.933
628.80	48.926
628.99	48.961
629.18	48.904
629.37	48.907
629.56	48.948
629.75	48.959
629.94	48.929
630.14	48.940
630.33	48.926
630.52	48.911
630.71	48.880
630.90	48.934
631.09	48.916
631.28	48.937
631.47	48.922
631.66	48.931
631.86	48.913
632.05	48.901
632.24	48.926
632.43	48.942
632.62	48.944
632.81	48.975
633.00	48.972
633.19	48.962
633.38	49.006
633.57	49.033
633.77	48.976
633.96	48.990
634.15	48.998
634.34	49.001
634.53	48.992
634.72	48.977
634.91	48.967
635.10	48.934
635.29	48.961
635.48	48.955
635.67	48.940
635.86	49.007
636.05	49.019
636.25	49.052
636.44	49.050
636.63	49.057
636.82	49.109
637.01	49.113
637.20	49.144
637.39	49.150
637.58	49.149
637.77	49.179
637.96	49.177
638.15	49.149
638.34	49.148
638.53	49.144
638.72	49.155
638.91	49.178
639.10	49.189
639.30	49.188
639.49	49.192
639.68	49.178
639.87	49.162
640.06	49.148
640.25	49.162
640.44	49.155
640.63	49.120
640.82	49.128
641.01	49.131
641.20	49.116
641.39	49.129
641.58	49.135
641.77	49.124
641.96	49.147
642.15	49.169
642.34	49.183
642.53	49.160
642.72	49.198
642.91	49.155
643.10	49.148
643.29	49.189
643.48	49.145
643.67	49.100
643.86	49.133
644.05	49.116
644.24	49.132
644.43	49.150
644.62	49.168
644.81	49.172
645.00	49.191
645.19	49.160
645.38	49.165
645.57	49.160
645.76	49.151
645.95	49.123
646.14	49.163
646.33	49.144
646.52	49.103
646.71	49.127
646.90	49.146
647.09	49.158
647.28	49.148
647.47	49.125
647.66	49.146
647.85	49.175
648.04	49.214
648.23	49.201
648.42	49.197
648.61	49.242
648.80	49.237
648.99	49.214
649.18	49.232
649.37	49.281
649.56	49.282
649.75	49.297
649.94	49.315
650.13	49.336
650.32	49.323
650.51	49.351
650.70	49.353
650.89	49.368
651.08	49.397
651.27	49.428
651.46	49.414
651.65	49.426
651.83	49.401
652.02	49.437
652.21	49.411
652.40	49.451
652.59	49.437
652.78	49.422
652.97	49.400
653.16	49.406
653.35	49.394
653.54	49.403
653.73	49.434
653.92	49.476
654.11	49.452
654.30	49.446
654.49	49.437
654.68	49.430
654.86	49.458
655.05	49.509
655.24	49.492
655.43	49.472
655.62	49.489
655.81	49.471
656.00	49.458
656.19	49.471
656.38	49.502
656.57	49.504
656.76	49.522
656.95	49.517
657.13	49.523
657.32	49.558
657.51	49.612
657.70	49.623
657.89	49.635
658.08	49.710
658.27	49.736
658.46	49.718
658.65	49.741
658.84	49.759
659.02	49.755
659.21	49.770
659.40	49.787
659.59	49.790
659.78	49.777
659.97	49.777
660.16	49.733
660.35	49.754
660.54	49.758
660.72	49.742
660.91	49.744
661.10	49.765
661.29	49.756
661.48	49.733
661.67	49.716
661.86	49.722
662.05	49.710
662.23	49.701
662.42	49.623
662.61	49.639
662.80	49.606
662.99	49.601
663.18	49.593
663.37	49.558
663.56	49.590
663.74	49.568
663.93	49.551
664.12	49.546
664.31	49.562
664.50	49.599
664.69	49.584
664.87	49.631
665.06	49.648
665.25	49.633
665.44	49.628
665.63	49.534
665.82	49.534
666.01	49.530
666.19	49.516
666.38	49.481
666.57	49.485
666.76	49.496
666.95	49.440
667.14	49.422
667.32	49.409
667.51	49.435
667.70	49.487
667.89	49.477
668.08	49.514
668.26	49.555
668.45	49.613
668.64	49.603
668.83	49.602
669.02	49.642
669.21	49.658
669.39	49.683
669.58	49.669
669.77	49.691
669.96	49.725
670.15	49.720
670.33	49.709
670.52	49.677
670.71	49.681
670.90	49.668
671.09	49.660
671.27	49.631
671.46	49.644
671.65	49.649
671.84	49.620
672.03	49.655
672.21	49.634
672.40	49.589
672.59	49.610
672.78	49.630
672.96	49.645
673.15	49.657
673.34	49.657
673.53	49.636
673.72	49.609
673.90	49.617
674.09	49.547
674.28	49.622
674.47	49.667
674.65	49.667
674.84	49.656
675.03	49.687
675.22	49.702
675.41	49.736
675.59	49.772
675.78	49.822
675.97	49.866
676.16	49.881
676.34	49.834
676.53	49.829
676.72	49.839
676.91	49.807
677.09	49.826
677.28	49.834
677.47	49.811
677.66	49.796
677.84	49.824
678.03	49.826
678.22	49.880
678.41	49.909
678.59	49.932
678.78	49.939
678.97	50.027
679.15	50.026
679.34	50.019
679.53	50.024
679.72	50.060
679.90	50.038
680.09	50.062
680.28	50.080
680.47	50.077
680.65	50.113
680.84	50.103
681.03	50.086
681.21	50.049
681.40	50.014
681.59	50.023
681.78	50.017
681.96	50.029
682.15	50.000
682.34	49.968
682.52	49.929
682.71	49.864
682.90	49.881
683.08	49.851
683.27	49.889
683.46	49.899
683.65	49.907
683.83	49.883
684.02	49.870
684.21	49.857
684.39	49.852
684.58	49.860
684.77	49.879
684.95	49.826
685.14	49.822
685.33	49.798
685.51	49.855
685.70	49.865
685.89	49.885
686.07	49.902
686.26	49.877
686.45	49.890
686.63	49.877
686.82	49.853
687.01	49.899
687.20	49.925
687.38	49.913
687.57	49.864
687.75	49.841
687.94	49.858
688.13	49.840
688.31	49.861
688.50	49.819
688.69	49.851
688.87	49.910
689.06	49.937
689.25	49.933
689.43	49.956
689.62	49.994
689.81	49.994
689.99	49.964
690.18	49.959
690.37	49.959
690.55	49.991
690.74	49.999
690.93	49.996
691.11	49.997
691.30	50.015
691.48	50.026
691.67	50.073
691.86	50.099
692.04	50.101
692.23	50.163
692.42	50.190
692.60	50.187
692.79	50.196
692.97	50.192
693.16	50.169
693.35	50.123
693.53	50.131
693.72	50.069
693.90	50.078
694.09	50.078
694.28	50.082
694.46	50.105
694.65	50.124
694.83	50.143
695.02	50.147
695.21	50.192
695.39	50.252
695.58	50.290
695.76	50.350
695.95	50.337
696.14	50.369
696.32	50.372
696.51	50.396
696.69	50.454
696.88	50.518
697.07	50.589
697.25	50.614
697.44	50.652
697.62	50.620
697.81	50.592
697.99	50.582
698.18	50.546
698.37	50.495
698.55	50.472
698.74	50.444
698.92	50.397
699.11	50.367
699.29	50.336
699.48	50.312
699.67	50.352
699.85	50.364
700.04	50.405
700.22	50.427
700.41	50.453
700.59	50.471
700.78	50.493
700.96	50.523
701.15	50.503
701.34	50.494
701.52	50.474
701.71	50.434
701.89	50.411
702.08	50.390
702.26	50.422
702.45	50.414
702.63	50.388
702.82	50.390
703.00	50.390
703.19	50.397
703.38	50.378
703.56	50.380
703.75	50.394
703.93	50.422
704.12	50.422
704.30	50.435
704.49	50.444
704.67	50.444
704.86	50.467
705.04	50.444
705.23	50.433
705.41	50.492
705.60	50.578
705.78	50.563
705.97	50.534
706.15	50.537
706.34	50.499
706.52	50.513
706.71	50.587
706.89	50.492
707.08	50.458
707.26	50.441
707.45	50.390
707.63	50.281
707.82	50.282
708.00	50.307
708.19	50.221
708.37	50.215
708.56	50.149
708.74	50.107
708.93	50.204
709.11	50.218
709.30	50.264
709.48	50.277
709.67	50.336
709.85	50.323
710.04	50.301
710.22	50.407
710.41	50.397
710.59	50.477
710.77	50.404
710.96	50.312
711.14	50.282
711.33	50.264
711.51	50.235
711.70	50.229
711.88	50.235
712.07	50.202
712.25	50.159
712.44	50.154
712.62	50.141
712.80	50.227
712.99	50.265
713.17	50.300
713.36	50.246
713.54	50.287
713.73	50.251
713.91	50.292
714.10	50.332
714.28	50.392
714.46	50.443
714.65	50.454
714.83	50.444
715.02	50.530
715.20	50.498
715.39	50.571
715.57	50.603
715.75	50.643
715.94	50.635
716.12	50.686
716.31	50.616
716.49	50.631
716.68	50.643
716.86	50.677
717.04	50.645
717.23	50.760
717.41	50.815
717.60	50.825
717.78	50.866
717.96	50.821
718.15	50.764
718.33	50.808
718.52	50.815
718.70	50.820
718.88	50.742
719.07	50.762
719.25	50.678
719.44	50.614
719.62	50.568
719.80	50.477
719.99	50.539
720.17	50.578
720.36	50.596
720.54	50.623
720.72	50.646
720.91	50.660
721.09	50.611
721.27	50.666
721.46	50.640
721.64	50.667
721.83	50.685
722.01	50.665
722.19	50.690
722.38	50.640
722.56	50.622
722.74	50.619
722.93	50.603
723.11	50.632
723.30	50.605
723.48	50.748
723.66	50.742
723.85	50.809
724.03	50.779
724.21	50.782
724.40	50.888
724.58	50.847
724.76	50.829
724.95	50.880
725.13	50.917
725.31	50.894
725.50	50.812
725.68	50.823
725.86	50.855
726.05	50.902
726.23	50.883
726.41	50.844
726.60	50.860
726.78	50.845
726.96	50.842
727.15	50.790
727.33	50.792
727.51	50.786
727.70	50.764
727.88	50.749
728.06	50.676
728.25	50.655
728.43	50.655
728.61	50.733
728.80	50.801
728.98	50.815
729.16	50.783
729.34	50.821
729.53	50.843
729.71	50.867
729.89	50.792
730.08	50.891
730.26	50.896
730.44	50.876
730.63	50.794
730.81	50.733
730.99	50.743
731.17	50.774
731.36	50.705
731.54	50.681
731.72	50.682
731.91	50.751
732.09	50.751
732.27	50.747
732.45	50.769
732.64	50.766
732.82	50.764
733.00	50.780
733.19	50.786
733.37	50.902
733.55	50.882
733.73	50.908
733.92	50.921
734.10	50.914
734.28	50.956
734.46	51.028
734.65	51.048
734.83	51.059
735.01	51.008
735.19	51.022
735.38	50.939
735.56	50.990
735.74	51.008
735.92	50.992
736.11	50.984
736.29	50.979
736.47	50.893
736.65	50.865
736.84	50.897
737.02	50.915
737.20	50.926
737.38	50.978
737.57	50.981
737.75	50.938
737.93	50.865
738.11	50.783
738.30	50.727
738.48	50.724
738.66	50.678
738.84	50.691
739.02	50.677
739.21	50.731
739.39	50.741
739.57	50.750
739.75	50.704
739.93	50.815
740.12	50.876
740.30	50.871
740.48	50.881
740.66	50.947
740.85	50.970
741.03	50.978
741.21	50.904
741.39	50.888
741.57	50.912
741.76	50.948
741.94	50.865
742.12	50.895
742.30	50.964
742.48	51.002
742.66	51.016
742.85	50.987
743.03	51.007
743.21	51.038
743.39	51.002
743.57	50.993
743.76	51.020
743.94	51.089
744.12	51.067
744.30	51.169
744.48	51.079
744.66	51.079
744.85	51.066
745.03	51.046
745.21	51.074
745.39	51.136
745.57	51.062
745.75	51.071
745.94	51.063
746.12	51.154
746.30	50.969
746.48	51.004
746.66	51.052
746.84	50.996
747.02	51.014
747.21	50.982
747.39	50.956
747.57	50.955
747.75	50.966
747.93	51.008
748.11	50.930
748.29	51.028
748.48	51.068
748.66	51.002
748.84	51.025
749.02	51.063
749.20	51.035
749.38	51.051
749.56	51.084
749.75	51.095
749.93	51.004
750.11	50.992
750.29	51.017
750.47	50.950
750.65	50.972
750.83	51.031
751.01	50.989
751.19	50.963
751.38	50.899
751.56	50.907
751.74	50.879
751.92	50.922
752.10	50.906
752.28	50.901
752.46	50.987
752.64	50.955
752.82	50.937
753.00	50.948
753.19	50.998
753.37	51.020
753.55	51.021
753.73	51.004
753.91	50.987
754.09	50.981
754.27	50.879
754.45	50.993
754.63	51.045
754.81	51.025
754.99	51.065
755.17	51.158
755.36	51.206
755.54	51.198
755.72	51.311
755.90	51.299
756.08	51.301
756.26	51.392
756.44	51.192
756.62	51.202
756.80	51.274
756.98	51.224
757.16	51.093
757.34	51.084
757.52	51.098
757.70	51.010
757.88	51.057
758.06	51.118
758.24	51.159
758.42	51.180
758.61	51.183
758.79	51.074
758.97	51.086
759.15	51.153
759.33	51.113
759.51	51.084
759.69	51.078
759.87	51.093
760.05	51.067
760.23	50.992
760.41	51.022
760.59	51.051
760.77	51.088
760.95	51.125
761.13	50.991
761.31	51.038
761.49	51.015
761.67	51.008
761.85	51.011
762.03	51.001
762.21	51.045
762.39	51.094
762.57	51.103
762.75	51.038
762.93	50.946
763.11	50.922
763.29	50.811
763.47	50.751
763.65	50.667
763.83	50.572
764.01	50.514
764.19	50.482
764.37	50.448
764.55	50.402
764.73	50.414
764.91	50.431
765.09	50.486
765.27	50.516
765.45	50.625
765.63	50.748
765.81	50.845
765.99	50.921
766.17	50.944
766.35	50.954
766.53	50.936
766.71	50.969
766.89	51.070
767.07	51.086
767.25	51.139
767.43	51.082
767.61	51.075
767.78	51.103
767.96	51.122
768.14	51.143
768.32	51.256
768.50	51.367
768.68	51.438
768.86	51.368
769.04	51.406
769.22	51.397
769.40	51.498
769.58	51.489
769.76	51.496
769.94	51.492
770.12	51.490
770.30	51.401
770.48	51.306
770.66	51.257
770.84	51.221
771.01	51.219
771.19	51.220
771.37	51.151
771.55	51.208
771.73	51.151
771.91	51.170
772.09	51.196
772.27	51.202
772.45	51.215
772.63	51.299
772.81	51.404
772.99	51.380
773.16	51.418
773.34	51.435
773.52	51.463
773.70	51.442
773.88	51.549
774.06	51.586
774.24	51.520
774.42	51.539
774.60	51.506
774.78	51.440
774.95	51.464
775.13	51.536
775.31	51.533
775.49	51.448
775.67	51.563
775.85	51.458
776.03	51.483
776.21	51.543
776.38	51.578
776.56	51.570
776.74	51.580
776.92	51.606
777.10	51.579
777.28	51.623
777.46	51.700
777.64	51.658
777.81	51.788
777.99	51.790
778.17	51.739
778.35	51.802
778.53	51.868
778.71	51.900
778.89	51.960
779.06	51.952
779.24	52.024
779.42	51.973
779.60	52.020
779.78	51.902
779.96	51.928
780.13	52.039
780.31	52.055
780.49	52.005
780.67	52.007
780.85	51.902
781.03	51.898
781.20	51.790
781.38	51.813
781.56	51.707
781.74	51.763
781.92	51.618
782.10	51.553
782.27	51.506
782.45	51.380
782.63	51.361
782.81	51.448
782.99	51.522
783.17	51.647
783.34	51.633
783.52	51.741
783.70	51.684
783.88	51.755
784.06	51.768
784.23	51.760
784.41	51.834
784.59	51.843
784.77	51.787
784.95	51.735
785.12	51.677
785.30	51.675
785.48	51.663
785.66	51.669
785.83	51.810
786.01	51.885
786.19	51.932
786.37	51.776
786.55	51.719
786.72	51.626
786.90	51.647
787.08	51.644
787.26	51.698
787.43	51.799
787.61	51.851
787.79	51.692
787.97	51.545
788.15	51.542
788.32	51.621
788.50	51.728
788.68	51.793
788.86	51.749
789.03	51.649
789.21	51.638
789.39	51.551
789.57	51.465
789.74	51.362
789.92	51.519
790.10	51.446
790.28	51.556
790.45	51.600
790.63	51.641
790.81	51.694
790.99	51.862
791.16	51.881
791.34	51.951
791.52	51.965
791.69	52.191
791.87	52.158
792.05	52.172
792.23	52.195
792.40	52.044
792.58	52.100
792.76	52.149
792.94	51.980
793.11	51.996
793.29	51.933
793.47	51.999
793.64	51.967
793.82	51.962
794.00	51.998
794.18	52.015
794.35	52.101
794.53	51.958
794.71	51.898
794.88	52.031
795.06	52.011
795.24	51.999
795.41	52.088
795.59	52.149
795.77	52.118
795.94	52.074
796.12	52.059
796.30	52.044
796.48	52.073
796.65	52.028
796.83	51.993
797.01	51.949
797.18	51.987
797.36	51.960
797.54	51.989
797.71	52.006
797.89	52.050
798.07	51.948
798.24	51.890
798.42	51.926
798.60	52.040
798.77	52.077
798.95	52.108
799.13	52.083
799.30	52.077
799.48	51.977
799.66	51.776
799.83	51.802
800.01	51.813
800.18	51.903
800.36	51.905
800.54	51.851
800.71	51.744
800.89	51.761
801.07	51.687
801.24	51.762
801.42	51.903
801.60	52.223
801.77	52.210
801.95	52.358
802.12	52.341
802.30	52.375
802.48	52.390
802.65	52.479
802.83	52.585
803.01	52.688
803.18	52.601
803.36	52.491
803.53	52.422
803.71	52.442
803.89	52.333
804.06	52.458
804.24	52.471
804.41	52.497
804.59	52.525
804.77	52.549
804.94	52.531
805.12	52.546
805.29	52.572
805.47	52.539
805.65	52.599
805.82	52.647
806.00	52.456
806.17	52.374
806.35	52.303
806.53	52.256
806.70	52.120
806.88	52.159
807.05	52.138
807.23	52.021
807.40	51.949
807.58	51.936
807.76	51.904
807.93	51.928
808.11	51.993
808.28	52.158
808.46	52.134
808.63	52.159
808.81	52.193
808.99	52.226
809.16	52.281
809.34	52.395
809.51	52.227
809.69	52.258
809.86	52.227
810.04	52.215
810.21	52.060
810.39	52.029
810.57	51.940
810.74	51.941
810.92	51.899
811.09	51.938
811.27	51.757
811.44	51.888
811.62	51.918
811.79	52.099
811.97	52.004
812.14	51.927
812.32	52.074
812.49	52.114
812.67	52.058
812.84	52.158
813.02	52.203
813.19	52.383
813.37	52.259
813.55	52.190
813.72	52.065
813.90	52.187
814.07	52.308
814.25	52.297
814.42	52.444
814.60	52.445
814.77	52.351
814.95	52.312
815.12	52.251
815.30	52.437
815.47	52.436
815.65	52.567
815.82	52.481
816.00	52.526
816.17	52.409
816.35	52.215
816.52	52.288
816.69	52.367
816.87	52.324
817.04	52.391
817.22	52.256
817.39	52.340
817.57	52.242
817.74	52.286
817.92	52.242
818.09	52.340
818.27	52.396
818.44	52.428
818.62	52.423
818.79	52.447
818.97	52.461
819.14	52.629
819.32	52.556
819.49	52.506
819.66	52.544
819.84	52.501
820.01	52.455
820.19	52.377
820.36	52.194
820.54	52.113
820.71	52.153
820.89	52.190
821.06	52.214
821.23	52.378
821.41	52.270
821.58	52.107
821.76	51.888
821.93	51.647
822.11	51.371
822.28	51.149
822.45	50.942
822.63	50.786
822.80	50.666
822.98	50.563
823.15	50.430
823.33	50.377
823.50	50.272
823.67	50.213
823.85	50.190
824.02	50.245
824.20	50.334
824.37	50.462
824.54	50.598
824.72	50.730
824.89	50.864
825.07	50.985
825.24	51.062
825.41	51.245
825.59	51.380
825.76	51.489
825.94	51.640
826.11	51.818
826.28	51.936
826.46	52.008
826.63	51.988
826.80	51.879
826.98	51.793
827.15	51.700
827.33	51.608
827.50	51.532
827.67	51.484
827.85	51.405
828.02	51.307
828.19	51.298
828.37	51.259
828.54	51.292
828.72	51.371
828.89	51.466
829.06	51.569
829.24	51.687
829.41	51.768
829.58	51.879
829.76	52.017
829.93	52.109
830.10	52.129
830.28	52.270
830.45	52.414
830.62	52.562
830.80	52.670
830.97	52.746
831.14	52.769
831.32	52.915
831.49	52.893
831.66	52.840
831.84	52.956
832.01	52.982
832.18	53.034
832.36	52.884
832.53	52.967
832.70	53.017
832.88	52.940
833.05	52.878
833.22	52.749
833.40	52.640
833.57	52.520
833.74	52.322
833.91	52.179
834.09	52.035
834.26	51.928
834.43	51.762
834.61	51.639
834.78	51.593
834.95	51.527
835.13	51.499
835.30	51.518
835.47	51.529
835.64	51.639
835.82	51.740
835.99	51.805
836.16	51.999
836.34	52.127
836.51	52.206
836.68	52.235
836.85	52.295
837.03	52.406
837.20	52.490
837.37	52.578
837.54	52.486
837.72	52.520
837.89	52.376
838.06	52.247
838.24	52.214
838.41	52.203
838.58	52.253
838.75	52.368
838.93	52.408
839.10	52.462
839.27	52.574
839.44	52.619
839.62	52.539
839.79	52.652
839.96	52.621
840.13	52.569
840.31	52.525
840.48	52.541
840.65	52.336
840.82	52.185
840.99	52.145
841.17	51.894
841.34	52.073
841.51	52.012
841.68	52.040
841.86	52.031
842.03	51.988
842.20	52.004
842.37	52.068
842.55	52.229
842.72	52.320
842.89	52.290
843.06	52.603
843.23	52.211
843.41	52.389
843.58	52.391
843.75	52.493
843.92	52.322
844.09	52.484
844.27	52.231
844.44	52.449
844.61	52.649
844.78	52.873
844.95	52.749
845.13	53.260
845.30	53.300
845.47	53.240
845.64	53.232
845.81	53.787
845.98	53.711
846.16	53.807
846.33	53.593
846.50	53.451
846.67	53.392
846.84	53.568
847.02	53.173
847.19	53.159
847.36	53.133
847.53	52.688
847.70	52.288
847.87	52.695
848.04	52.832
848.22	52.767
848.39	52.645
848.56	52.311
848.73	52.019
848.90	52.015
849.07	51.825
849.25	51.843
849.42	52.120
849.59	52.231
849.76	51.880
849.93	51.835
850.10	51.950
850.27	52.276
850.45	52.716
850.62	53.009
850.79	53.207
850.96	53.474
851.13	53.674
851.30	53.832
851.47	53.644
851.64	54.028
851.82	53.953
851.99	54.202
852.16	54.019
852.33	53.815
852.50	53.800
852.67	53.584
852.84	53.297
853.01	53.112
853.18	53.060
853.35	53.312
853.53	52.802
853.70	53.129
853.87	53.095
854.04	53.347
854.21	53.112
854.38	52.855
854.55	52.880
854.72	52.864
854.89	52.441
855.06	52.400
855.23	52.403
855.41	52.737
855.58	52.518
855.75	52.324
855.92	51.899
856.09	52.045
856.26	51.957
856.43	51.733
856.60	51.546
856.77	52.021
856.94	51.737
857.11	51.755
857.28	51.695
857.45	51.307
857.62	51.193
857.80	51.287
857.97	51.157
858.14	51.400
858.31	51.736
858.48	52.002
858.65	52.075
858.82	52.347
858.99	52.262
859.16	52.229
859.33	52.641
859.50	52.587
859.67	52.708
859.84	52.621
860.01	52.654
860.18	52.713
860.35	52.779
860.52	52.742
860.69	52.702
860.86	52.998
861.03	52.324
861.20	52.177
861.37	52.311
861.54	52.484
861.71	52.602
861.88	52.435
862.05	52.268
862.22	52.418
862.39	52.238
862.56	52.429
862.73	52.118
862.90	52.867
863.07	52.999
863.24	53.088
863.41	52.800
863.58	52.969
863.75	53.229
863.92	53.457
864.09	53.361
864.26	53.215
864.43	53.146
864.60	52.962
864.77	52.944
864.94	53.202
865.11	53.004
865.28	53.041
865.45	52.577
865.62	52.548
865.79	52.446
865.96	52.382
866.13	52.676
866.30	52.347
866.47	52.767
866.64	52.159
866.81	51.891
866.98	52.462
867.15	52.510
867.32	52.552
867.49	52.256
867.66	52.329
867.82	52.224
867.99	52.204
868.16	52.616
868.33	52.585
868.50	52.667
868.67	52.757
868.84	52.465
869.01	52.533
869.18	53.109
869.35	53.166
869.52	53.077
869.69	53.741
869.86	53.655
870.03	53.624
870.19	53.385
870.36	53.975
870.53	53.895
870.70	53.665
870.87	53.739
871.04	53.412
871.21	53.371
871.38	53.706
871.55	52.911
871.72	52.962
871.89	52.827
872.05	52.670
872.22	52.124
872.39	51.945
872.56	52.281
872.73	51.976
872.90	52.319
873.07	52.518
873.24	52.229
873.41	52.577
873.57	52.884
873.74	52.940
873.91	53.091
874.08	53.701
874.25	53.753
874.42	53.345
874.59	53.436
874.76	53.502
874.92	53.295
875.09	53.403
875.26	53.391
875.43	52.909
875.60	52.644
875.77	52.896
875.94	52.545
876.11	52.770
876.27	52.756
876.44	52.889
876.61	52.479
876.78	52.750
876.95	52.638
877.12	52.499
877.28	52.656
877.45	53.126
877.62	52.881
877.79	52.930
877.96	52.874
878.13	52.800
878.29	52.774
878.46	53.186
878.63	53.207
878.80	53.282
878.97	53.555
879.14	53.588
879.30	53.809
879.47	53.776
879.64	53.792
879.81	53.882
879.98	54.121
880.14	54.080
880.31	54.040
880.48	54.149
880.65	54.053
880.82	53.737
880.98	53.503
881.15	52.947
881.32	52.684
881.49	52.273
881.66	51.973
881.82	51.772
881.99	51.558
882.16	51.352
882.33	51.171
882.50	51.027
882.66	50.941
882.83	50.826
883.00	50.835
883.17	50.836
883.33	50.960
883.50	51.091
883.67	51.158
883.84	51.287
884.01	51.442
884.17	51.534
884.34	51.614
884.51	51.752
884.68	51.871
884.84	52.035
885.01	52.093
885.18	52.111
885.35	52.113
885.51	52.253
885.68	52.326
885.85	52.391
886.02	52.611
886.18	52.882
886.35	52.818
886.52	53.048
886.69	52.939
886.85	53.037
887.02	53.021
887.19	52.939
887.35	52.869
887.52	53.055
887.69	53.179
887.86	53.117
888.02	53.147
888.19	53.352
888.36	54.448
888.53	55.082
888.69	54.173
888.86	54.724
889.03	53.585
>>>>>End Spectral Data<<<<<
