OOIBase32 Version 2.0.6.5 Data File
++++++++++++++++++++++++++++++++++++
Date: 11-17-2016, 11:08:33
User: Valued Ocean Optics Customer
Spectrometer Serial Number: USB4C01507
Spectrometer Channel: Master
Integration Time (msec): 49
Spectra Averaged: 25
Boxcar Smoothing: 5
Correct for Electrical Dark: Enabled
Time Normalized: Disabled
Dual-beam Reference: Disabled
Reference Channel: Master
Temperature: Not acquired
Spectrometer Type: S4000
ADC Type: USB4000
Number of Pixels in File: 3648
Graph Title: 
>>>>>Begin Spectral Data<<<<<
178.53	1618.783
178.74	2148.921
178.96	5.198
179.18	32.785
179.39	579.365
179.61	-65.001
179.82	111.513
180.04	133.749
180.25	122.344
180.47	-142.895
180.69	249.923
180.90	336.946
181.12	107.779
181.33	71.334
181.55	-27.947
181.76	-10750.324
181.98	115.443
182.20	-237.587
182.41	13.595
182.63	-72.752
182.84	-16.571
183.06	-17.107
183.27	-4.168
183.49	-3.682
183.71	-5.032
183.92	-6.826
184.14	-16.353
184.35	0.419
184.57	4.147
184.78	12.315
185.00	14.095
185.21	14.383
185.43	12.877
185.65	14.442
185.86	9.027
186.08	11.681
186.29	10.058
186.51	15.998
186.72	1.135
186.94	9.114
187.15	7.511
187.37	-1.207
187.58	7.448
187.80	9.998
188.02	10.844
188.23	10.490
188.45	5.327
188.66	19.361
188.88	23.359
189.09	26.531
189.31	29.195
189.52	27.589
189.74	32.900
189.95	28.028
190.17	25.026
190.38	24.324
190.60	38.035
190.82	46.504
191.03	30.883
191.25	22.653
191.46	28.184
191.68	19.187
191.89	20.068
192.11	24.199
192.32	30.529
192.54	28.047
192.75	26.070
192.97	25.035
193.18	20.880
193.40	28.378
193.61	34.371
193.83	30.814
194.04	27.404
194.26	27.380
194.48	22.528
194.69	19.998
194.91	23.540
195.12	23.885
195.34	27.514
195.55	21.631
195.77	16.093
195.98	11.204
196.20	6.755
196.41	5.104
196.63	6.476
196.84	8.193
197.06	7.252
197.27	7.202
197.49	4.113
197.70	-2.462
197.92	-4.119
198.13	-4.191
198.35	-5.353
198.56	-7.668
198.78	-9.331
198.99	-11.007
199.21	-11.560
199.42	-14.121
199.64	-11.822
199.85	-10.279
200.07	-11.098
200.28	-1.380
200.50	-0.469
200.71	4.684
200.93	10.339
201.14	14.598
201.36	15.158
201.57	18.171
201.79	15.010
202.00	14.111
202.22	12.416
202.43	14.868
202.65	11.993
202.86	9.791
203.08	6.595
203.29	4.547
203.51	5.221
203.72	6.014
203.94	3.608
204.15	8.164
204.37	14.375
204.58	17.649
204.80	17.805
205.01	20.039
205.22	20.697
205.44	23.722
205.65	19.299
205.87	14.404
206.08	17.405
206.30	18.246
206.51	15.212
206.73	6.040
206.94	1.730
207.16	-1.345
207.37	-4.882
207.59	-4.777
207.80	-5.235
208.02	-0.993
208.23	2.809
208.45	0.333
208.66	-2.151
208.88	-1.489
209.09	1.933
209.30	4.247
209.52	1.914
209.73	4.337
209.95	8.775
210.16	3.879
210.38	6.594
210.59	9.443
210.81	6.464
211.02	6.769
211.24	8.169
211.45	6.755
211.66	7.629
211.88	9.936
212.09	10.385
212.31	6.168
212.52	8.617
212.74	5.023
212.95	1.336
213.17	4.353
213.38	5.541
213.60	8.285
213.81	7.286
214.02	8.298
214.24	10.033
214.45	7.064
214.67	7.354
214.88	6.202
215.10	9.051
215.31	10.268
215.53	7.215
215.74	7.855
215.95	5.343
216.17	5.957
216.38	2.479
216.60	-1.705
216.81	0.311
217.03	0.553
217.24	2.196
217.45	1.382
217.67	1.707
217.88	4.159
218.10	4.480
218.31	5.412
218.53	5.679
218.74	6.084
218.95	6.167
219.17	5.622
219.38	7.674
219.60	8.111
219.81	8.758
220.03	8.642
220.24	8.587
220.45	6.498
220.67	6.092
220.88	6.455
221.10	6.638
221.31	7.829
221.53	6.968
221.74	5.172
221.95	4.789
222.17	3.183
222.38	3.563
222.60	2.446
222.81	2.886
223.02	2.832
223.24	2.797
223.45	3.529
223.67	2.881
223.88	3.417
224.09	4.773
224.31	4.490
224.52	5.700
224.74	5.020
224.95	5.973
225.16	6.046
225.38	5.774
225.59	5.606
225.81	5.101
226.02	5.414
226.23	5.017
226.45	4.679
226.66	4.603
226.88	4.753
227.09	5.240
227.30	4.931
227.52	5.141
227.73	5.033
227.95	4.933
228.16	4.942
228.37	4.917
228.59	5.025
228.80	5.043
229.02	4.982
229.23	4.913
229.44	4.791
229.66	4.820
229.87	4.809
230.08	4.791
230.30	4.762
230.51	4.823
230.73	4.837
230.94	4.834
231.15	4.635
231.37	4.755
231.58	4.636
231.80	4.771
232.01	5.062
232.22	4.942
232.44	5.090
232.65	5.400
232.86	4.923
233.08	5.006
233.29	4.895
233.51	5.200
233.72	5.010
233.93	5.106
234.15	5.029
234.36	4.846
234.57	4.780
234.79	5.027
235.00	4.899
235.21	5.360
235.43	5.206
235.64	4.944
235.86	4.792
236.07	4.793
236.28	4.558
236.50	4.434
236.71	4.421
236.92	4.514
237.14	4.380
237.35	4.668
237.56	4.619
237.78	4.586
237.99	4.816
238.20	4.869
238.42	5.208
238.63	5.209
238.84	5.509
239.06	5.394
239.27	5.116
239.48	5.009
239.70	4.746
239.91	4.482
240.13	4.419
240.34	4.345
240.55	4.170
240.77	4.125
240.98	4.137
241.19	4.188
241.41	3.989
241.62	3.975
241.83	3.958
242.05	4.027
242.26	4.051
242.47	4.116
242.69	4.145
242.90	4.244
243.11	4.184
243.33	4.204
243.54	4.060
243.75	4.206
243.97	4.332
244.18	4.319
244.39	4.230
244.61	4.180
244.82	4.225
245.03	4.256
245.24	4.140
245.46	4.130
245.67	4.120
245.88	4.075
246.10	4.066
246.31	4.013
246.52	3.973
246.74	3.950
246.95	3.956
247.16	3.926
247.38	3.897
247.59	3.921
247.80	3.941
248.02	3.950
248.23	3.954
248.44	3.929
248.66	3.951
248.87	4.041
249.08	4.077
249.29	4.131
249.51	4.157
249.72	4.301
249.93	4.382
250.15	4.377
250.36	4.357
250.57	4.350
250.79	4.534
251.00	4.493
251.21	4.406
251.42	4.434
251.64	4.373
251.85	4.439
252.06	4.415
252.28	4.284
252.49	4.308
252.70	4.276
252.91	4.300
253.13	4.210
253.34	4.229
253.55	4.204
253.77	4.174
253.98	4.246
254.19	4.037
254.40	3.742
254.62	3.846
254.83	3.748
255.04	3.664
255.26	3.572
255.47	3.443
255.68	3.387
255.89	3.492
256.11	3.343
256.32	3.203
256.53	3.258
256.75	3.389
256.96	3.303
257.17	3.461
257.38	3.680
257.60	3.839
257.81	3.863
258.02	3.801
258.23	3.772
258.45	3.837
258.66	3.851
258.87	3.792
259.09	3.745
259.30	3.713
259.51	3.654
259.72	3.607
259.94	3.575
260.15	3.551
260.36	3.636
260.57	3.626
260.79	3.637
261.00	3.637
261.21	3.638
261.42	3.687
261.64	3.710
261.85	3.760
262.06	3.842
262.27	3.848
262.49	3.946
262.70	3.754
262.91	3.759
263.12	3.689
263.34	3.661
263.55	3.600
263.76	3.573
263.97	3.647
264.19	3.637
264.40	3.507
264.61	3.592
264.82	3.589
265.04	3.524
265.25	3.487
265.46	3.510
265.67	3.543
265.88	3.652
266.10	3.536
266.31	3.483
266.52	3.412
266.73	3.532
266.95	3.517
267.16	3.422
267.37	3.429
267.58	3.403
267.80	3.438
268.01	3.367
268.22	3.357
268.43	3.493
268.64	3.559
268.86	3.502
269.07	3.364
269.28	3.262
269.49	3.314
269.71	3.359
269.92	3.309
270.13	3.385
270.34	3.413
270.55	3.442
270.77	3.477
270.98	3.386
271.19	3.509
271.40	3.570
271.61	3.529
271.83	3.492
272.04	3.487
272.25	3.550
272.46	3.456
272.68	3.517
272.89	3.491
273.10	3.385
273.31	3.329
273.52	3.347
273.74	3.270
273.95	3.277
274.16	3.412
274.37	3.456
274.58	3.423
274.80	3.452
275.01	3.397
275.22	3.396
275.43	3.522
275.64	3.568
275.86	3.573
276.07	3.610
276.28	3.755
276.49	3.672
276.70	3.554
276.91	3.575
277.13	3.432
277.34	3.429
277.55	3.542
277.76	3.351
277.97	3.347
278.19	3.289
278.40	3.427
278.61	3.326
278.82	3.304
279.03	3.321
279.24	3.304
279.46	3.360
279.67	3.324
279.88	3.112
280.09	3.222
280.30	3.301
280.52	3.311
280.73	3.235
280.94	3.232
281.15	3.205
281.36	3.320
281.57	3.382
281.79	3.418
282.00	3.430
282.21	3.417
282.42	3.397
282.63	3.393
282.84	3.354
283.06	3.299
283.27	3.341
283.48	3.384
283.69	3.279
283.90	3.217
284.11	3.153
284.32	3.158
284.54	3.199
284.75	3.160
284.96	3.139
285.17	3.178
285.38	3.237
285.59	3.209
285.81	3.186
286.02	3.256
286.23	3.234
286.44	3.344
286.65	3.459
286.86	3.462
287.07	3.446
287.29	3.461
287.50	3.433
287.71	3.350
287.92	3.340
288.13	3.359
288.34	3.305
288.55	3.403
288.77	3.370
288.98	3.215
289.19	3.216
289.40	3.283
289.61	3.346
289.82	3.366
290.03	3.355
290.24	3.440
290.46	3.403
290.67	3.454
290.88	3.455
291.09	3.398
291.30	3.402
291.51	3.430
291.72	3.480
291.93	3.400
292.15	3.370
292.36	3.518
292.57	3.515
292.78	3.512
292.99	3.371
293.20	3.382
293.41	3.414
293.62	3.418
293.84	3.464
294.05	3.362
294.26	3.435
294.47	3.385
294.68	3.335
294.89	3.296
295.10	3.255
295.31	3.345
295.52	3.295
295.73	3.175
295.95	3.181
296.16	3.148
296.37	3.191
296.58	3.153
296.79	3.150
297.00	3.107
297.21	3.050
297.42	3.039
297.63	3.036
297.84	3.033
298.06	3.033
298.27	3.062
298.48	3.100
298.69	3.049
298.90	3.029
299.11	3.074
299.32	3.137
299.53	3.152
299.74	3.216
299.95	3.184
300.16	3.128
300.38	3.227
300.59	3.153
300.80	3.029
301.01	3.039
301.22	3.001
301.43	2.937
301.64	2.869
301.85	2.791
302.06	2.783
302.27	2.777
302.48	2.838
302.69	2.818
302.91	2.815
303.12	2.854
303.33	2.816
303.54	2.855
303.75	2.829
303.96	2.837
304.17	2.905
304.38	2.910
304.59	2.939
304.80	2.931
305.01	2.936
305.22	2.958
305.43	2.971
305.64	3.017
305.85	2.972
306.06	3.066
306.28	3.084
306.49	3.092
306.70	3.057
306.91	2.938
307.12	2.918
307.33	2.839
307.54	2.889
307.75	2.895
307.96	2.811
308.17	2.842
308.38	2.764
308.59	2.720
308.80	2.733
309.01	2.687
309.22	2.772
309.43	2.780
309.64	2.784
309.85	2.718
310.06	2.681
310.27	2.799
310.48	2.779
310.70	2.813
310.91	2.834
311.12	2.813
311.33	2.877
311.54	2.794
311.75	2.729
311.96	2.761
312.17	2.770
312.38	2.786
312.59	2.729
312.80	2.754
313.01	2.703
313.22	2.714
313.43	2.670
313.64	2.629
313.85	2.687
314.06	2.718
314.27	2.706
314.48	2.791
314.69	2.829
314.90	2.850
315.11	2.730
315.32	2.754
315.53	2.760
315.74	2.767
315.95	2.749
316.16	2.724
316.37	2.680
316.58	2.627
316.79	2.550
317.00	2.588
317.21	2.478
317.42	2.513
317.63	2.578
317.84	2.483
318.05	2.460
318.26	2.440
318.47	2.457
318.68	2.540
318.89	2.628
319.10	2.611
319.31	2.464
319.52	2.557
319.73	2.545
319.94	2.481
320.15	2.503
320.36	2.570
320.57	2.566
320.78	2.582
320.99	2.485
321.20	2.495
321.41	2.514
321.62	2.514
321.83	2.522
322.04	2.540
322.25	2.535
322.46	2.522
322.67	2.589
322.88	2.551
323.09	2.508
323.30	2.502
323.51	2.417
323.72	2.432
323.93	2.446
324.14	2.439
324.35	2.458
324.56	2.450
324.77	2.447
324.98	2.341
325.19	2.398
325.40	2.476
325.61	2.581
325.82	2.595
326.03	2.563
326.24	2.600
326.45	2.558
326.65	2.550
326.86	2.537
327.07	2.556
327.28	2.570
327.49	2.587
327.70	2.510
327.91	2.439
328.12	2.435
328.33	2.389
328.54	2.391
328.75	2.457
328.96	2.435
329.17	2.451
329.38	2.426
329.59	2.429
329.80	2.411
330.01	2.464
330.22	2.442
330.43	2.443
330.64	2.478
330.85	2.465
331.05	2.400
331.26	2.421
331.47	2.369
331.68	2.447
331.89	2.424
332.10	2.333
332.31	2.314
332.52	2.320
332.73	2.284
332.94	2.277
333.15	2.274
333.36	2.331
333.57	2.271
333.78	2.307
333.99	2.210
334.19	2.237
334.40	2.285
334.61	2.292
334.82	2.323
335.03	2.308
335.24	2.291
335.45	2.283
335.66	2.220
335.87	2.256
336.08	2.327
336.29	2.366
336.50	2.315
336.71	2.359
336.91	2.373
337.12	2.314
337.33	2.372
337.54	2.366
337.75	2.358
337.96	2.322
338.17	2.346
338.38	2.235
338.59	2.265
338.80	2.234
339.01	2.181
339.21	2.128
339.42	2.147
339.63	2.110
339.84	2.157
340.05	2.147
340.26	2.104
340.47	2.083
340.68	2.116
340.89	2.102
341.10	2.141
341.30	2.176
341.51	2.206
341.72	2.266
341.93	2.313
342.14	2.214
342.35	2.267
342.56	2.333
342.77	2.360
342.98	2.320
343.18	2.282
343.39	2.269
343.60	2.270
343.81	2.262
344.02	2.252
344.23	2.218
344.44	2.274
344.65	2.185
344.85	2.147
345.06	2.131
345.27	2.171
345.48	2.194
345.69	2.232
345.90	2.266
346.11	2.263
346.32	2.230
346.52	2.222
346.73	2.232
346.94	2.271
347.15	2.332
347.36	2.312
347.57	2.333
347.78	2.321
347.98	2.332
348.19	2.288
348.40	2.290
348.61	2.324
348.82	2.371
349.03	2.339
349.24	2.339
349.44	2.339
349.65	2.325
349.86	2.315
350.07	2.337
350.28	2.298
350.49	2.284
350.70	2.240
350.90	2.195
351.11	2.131
351.32	2.176
351.53	2.226
351.74	2.213
351.95	2.195
352.15	2.156
352.36	2.104
352.57	2.114
352.78	2.182
352.99	2.233
353.20	2.290
353.40	2.276
353.61	2.212
353.82	2.134
354.03	2.160
354.24	2.187
354.45	2.246
354.65	2.309
354.86	2.289
355.07	2.263
355.28	2.301
355.49	2.272
355.70	2.286
355.90	2.329
356.11	2.345
356.32	2.330
356.53	2.329
356.74	2.287
356.94	2.242
357.15	2.283
357.36	2.271
357.57	2.236
357.78	2.233
357.99	2.288
358.19	2.246
358.40	2.264
358.61	2.301
358.82	2.341
359.03	2.340
359.23	2.352
359.44	2.352
359.65	2.339
359.86	2.355
360.07	2.355
360.27	2.357
360.48	2.390
360.69	2.421
360.90	2.372
361.11	2.435
361.31	2.470
361.52	2.464
361.73	2.460
361.94	2.494
362.15	2.463
362.35	2.462
362.56	2.460
362.77	2.463
362.98	2.422
363.18	2.444
363.39	2.371
363.60	2.367
363.81	2.386
364.02	2.402
364.22	2.409
364.43	2.367
364.64	2.371
364.85	2.337
365.05	2.332
365.26	2.338
365.47	2.337
365.68	2.336
365.89	2.338
366.09	2.348
366.30	2.350
366.51	2.315
366.72	2.366
366.92	2.391
367.13	2.426
367.34	2.429
367.55	2.437
367.75	2.440
367.96	2.450
368.17	2.428
368.38	2.428
368.58	2.393
368.79	2.369
369.00	2.368
369.21	2.348
369.41	2.327
369.62	2.350
369.83	2.330
370.04	2.306
370.24	2.311
370.45	2.349
370.66	2.344
370.87	2.308
371.07	2.296
371.28	2.320
371.49	2.287
371.70	2.262
371.90	2.237
372.11	2.256
372.32	2.296
372.53	2.289
372.73	2.238
372.94	2.200
373.15	2.273
373.36	2.301
373.56	2.264
373.77	2.292
373.98	2.339
374.19	2.344
374.39	2.366
374.60	2.367
374.81	2.393
375.01	2.431
375.22	2.447
375.43	2.416
375.64	2.399
375.84	2.436
376.05	2.453
376.26	2.423
376.46	2.410
376.67	2.379
376.88	2.370
377.09	2.330
377.29	2.314
377.50	2.316
377.71	2.318
377.91	2.336
378.12	2.313
378.33	2.332
378.54	2.367
378.74	2.381
378.95	2.370
379.16	2.368
379.36	2.362
379.57	2.360
379.78	2.386
379.99	2.400
380.19	2.387
380.40	2.348
380.61	2.300
380.81	2.277
381.02	2.277
381.23	2.285
381.43	2.263
381.64	2.304
381.85	2.342
382.05	2.339
382.26	2.325
382.47	2.340
382.67	2.388
382.88	2.415
383.09	2.429
383.30	2.438
383.50	2.461
383.71	2.489
383.92	2.446
384.12	2.405
384.33	2.372
384.54	2.386
384.74	2.374
384.95	2.381
385.16	2.348
385.36	2.344
385.57	2.341
385.78	2.347
385.98	2.332
386.19	2.341
386.40	2.356
386.60	2.354
386.81	2.339
387.02	2.337
387.22	2.324
387.43	2.360
387.64	2.341
387.84	2.349
388.05	2.335
388.26	2.328
388.46	2.330
388.67	2.352
388.88	2.370
389.08	2.384
389.29	2.394
389.49	2.384
389.70	2.351
389.91	2.345
390.11	2.316
390.32	2.334
390.53	2.348
390.73	2.350
390.94	2.328
391.15	2.340
391.35	2.325
391.56	2.339
391.77	2.346
391.97	2.368
392.18	2.388
392.38	2.423
392.59	2.418
392.80	2.411
393.00	2.411
393.21	2.407
393.42	2.420
393.62	2.444
393.83	2.448
394.04	2.452
394.24	2.443
394.45	2.445
394.65	2.449
394.86	2.438
395.07	2.437
395.27	2.437
395.48	2.425
395.68	2.416
395.89	2.403
396.10	2.395
396.30	2.366
396.51	2.397
396.72	2.396
396.92	2.372
397.13	2.383
397.33	2.388
397.54	2.381
397.75	2.398
397.95	2.406
398.16	2.391
398.36	2.391
398.57	2.424
398.78	2.387
398.98	2.385
399.19	2.377
399.39	2.388
399.60	2.373
399.81	2.381
400.01	2.367
400.22	2.345
400.42	2.389
400.63	2.371
400.84	2.377
401.04	2.422
401.25	2.419
401.45	2.437
401.66	2.406
401.86	2.412
402.07	2.436
402.28	2.451
402.48	2.450
402.69	2.430
402.89	2.431
403.10	2.421
403.31	2.400
403.51	2.396
403.72	2.412
403.92	2.420
404.13	2.407
404.33	2.398
404.54	2.385
404.75	2.378
404.95	2.394
405.16	2.398
405.36	2.377
405.57	2.364
405.77	2.381
405.98	2.365
406.18	2.345
406.39	2.360
406.60	2.345
406.80	2.367
407.01	2.387
407.21	2.364
407.42	2.391
407.62	2.432
407.83	2.418
408.03	2.387
408.24	2.373
408.45	2.374
408.65	2.399
408.86	2.408
409.06	2.402
409.27	2.397
409.47	2.389
409.68	2.358
409.88	2.359
410.09	2.382
410.29	2.378
410.50	2.410
410.71	2.437
410.91	2.422
411.12	2.425
411.32	2.409
411.53	2.386
411.73	2.404
411.94	2.400
412.14	2.399
412.35	2.395
412.55	2.433
412.76	2.403
412.96	2.408
413.17	2.397
413.37	2.402
413.58	2.430
413.78	2.450
413.99	2.454
414.19	2.509
414.40	2.513
414.61	2.508
414.81	2.510
415.02	2.519
415.22	2.502
415.43	2.517
415.63	2.517
415.84	2.505
416.04	2.506
416.25	2.498
416.45	2.475
416.66	2.482
416.86	2.498
417.07	2.475
417.27	2.475
417.48	2.479
417.68	2.484
417.89	2.493
418.09	2.492
418.30	2.484
418.50	2.474
418.71	2.466
418.91	2.457
419.12	2.433
419.32	2.423
419.53	2.420
419.73	2.406
419.94	2.405
420.14	2.377
420.34	2.387
420.55	2.390
420.75	2.392
420.96	2.390
421.16	2.382
421.37	2.401
421.57	2.429
421.78	2.432
421.98	2.435
422.19	2.429
422.39	2.458
422.60	2.441
422.80	2.439
423.01	2.439
423.21	2.454
423.42	2.457
423.62	2.442
423.83	2.420
424.03	2.416
424.23	2.431
424.44	2.429
424.64	2.426
424.85	2.436
425.05	2.443
425.26	2.456
425.46	2.458
425.67	2.447
425.87	2.452
426.08	2.477
426.28	2.488
426.48	2.485
426.69	2.500
426.89	2.499
427.10	2.513
427.30	2.531
427.51	2.524
427.71	2.522
427.92	2.512
428.12	2.533
428.32	2.527
428.53	2.522
428.73	2.523
428.94	2.504
429.14	2.498
429.35	2.481
429.55	2.465
429.76	2.467
429.96	2.456
430.16	2.493
430.37	2.484
430.57	2.499
430.78	2.505
430.98	2.516
431.19	2.520
431.39	2.509
431.59	2.500
431.80	2.501
432.00	2.495
432.21	2.502
432.41	2.482
432.61	2.473
432.82	2.457
433.02	2.470
433.23	2.460
433.43	2.469
433.64	2.470
433.84	2.483
434.04	2.493
434.25	2.507
434.45	2.500
434.66	2.516
434.86	2.514
435.06	2.521
435.27	2.505
435.47	2.494
435.68	2.479
435.88	2.496
436.08	2.482
436.29	2.451
436.49	2.457
436.70	2.457
436.90	2.460
437.10	2.487
437.31	2.471
437.51	2.462
437.71	2.480
437.92	2.485
438.12	2.480
438.33	2.500
438.53	2.508
438.73	2.493
438.94	2.489
439.14	2.507
439.35	2.498
439.55	2.512
439.75	2.531
439.96	2.542
440.16	2.555
440.36	2.562
440.57	2.552
440.77	2.561
440.97	2.556
441.18	2.568
441.38	2.552
441.59	2.550
441.79	2.549
441.99	2.545
442.20	2.509
442.40	2.507
442.60	2.509
442.81	2.498
443.01	2.488
443.21	2.488
443.42	2.480
443.62	2.480
443.83	2.510
444.03	2.504
444.23	2.519
444.44	2.547
444.64	2.537
444.84	2.513
445.05	2.509
445.25	2.512
445.45	2.528
445.66	2.531
445.86	2.527
446.06	2.507
446.27	2.515
446.47	2.497
446.67	2.498
446.88	2.500
447.08	2.513
447.28	2.532
447.49	2.540
447.69	2.532
447.89	2.538
448.10	2.542
448.30	2.554
448.50	2.538
448.71	2.532
448.91	2.528
449.11	2.532
449.32	2.540
449.52	2.548
449.72	2.552
449.93	2.545
450.13	2.537
450.33	2.545
450.53	2.517
450.74	2.533
450.94	2.548
451.14	2.560
451.35	2.572
451.55	2.563
451.75	2.556
451.96	2.541
452.16	2.549
452.36	2.554
452.57	2.560
452.77	2.584
452.97	2.579
453.17	2.587
453.38	2.590
453.58	2.560
453.78	2.550
453.99	2.547
454.19	2.562
454.39	2.559
454.59	2.564
454.80	2.555
455.00	2.572
455.20	2.571
455.41	2.556
455.61	2.549
455.81	2.587
456.01	2.598
456.22	2.616
456.42	2.613
456.62	2.623
456.83	2.631
457.03	2.631
457.23	2.612
457.43	2.613
457.64	2.629
457.84	2.617
458.04	2.602
458.25	2.603
458.45	2.589
458.65	2.580
458.85	2.574
459.06	2.554
459.26	2.552
459.46	2.550
459.66	2.556
459.87	2.558
460.07	2.560
460.27	2.561
460.47	2.564
460.68	2.575
460.88	2.577
461.08	2.579
461.28	2.594
461.49	2.596
461.69	2.606
461.89	2.609
462.09	2.615
462.30	2.612
462.50	2.624
462.70	2.625
462.90	2.602
463.11	2.619
463.31	2.617
463.51	2.608
463.71	2.616
463.92	2.620
464.12	2.620
464.32	2.613
464.52	2.613
464.72	2.599
464.93	2.594
465.13	2.598
465.33	2.591
465.53	2.593
465.74	2.604
465.94	2.589
466.14	2.581
466.34	2.578
466.54	2.567
466.75	2.566
466.95	2.570
467.15	2.566
467.35	2.562
467.56	2.559
467.76	2.565
467.96	2.570
468.16	2.578
468.36	2.572
468.57	2.584
468.77	2.600
468.97	2.592
469.17	2.592
469.37	2.605
469.58	2.606
469.78	2.611
469.98	2.615
470.18	2.604
470.38	2.613
470.59	2.617
470.79	2.599
470.99	2.585
471.19	2.589
471.39	2.590
471.60	2.587
471.80	2.576
472.00	2.579
472.20	2.583
472.40	2.603
472.61	2.594
472.81	2.606
473.01	2.616
473.21	2.632
473.41	2.641
473.61	2.645
473.82	2.660
474.02	2.673
474.22	2.677
474.42	2.684
474.62	2.686
474.82	2.692
475.03	2.701
475.23	2.700
475.43	2.705
475.63	2.713
475.83	2.698
476.03	2.678
476.24	2.667
476.44	2.668
476.64	2.646
476.84	2.641
477.04	2.632
477.24	2.623
477.45	2.619
477.65	2.616
477.85	2.605
478.05	2.610
478.25	2.617
478.45	2.623
478.65	2.623
478.86	2.626
479.06	2.617
479.26	2.630
479.46	2.634
479.66	2.646
479.86	2.636
480.06	2.650
480.27	2.646
480.47	2.642
480.67	2.638
480.87	2.634
481.07	2.637
481.27	2.654
481.47	2.655
481.68	2.653
481.88	2.657
482.08	2.667
482.28	2.680
482.48	2.693
482.68	2.699
482.88	2.708
483.08	2.726
483.29	2.739
483.49	2.715
483.69	2.700
483.89	2.696
484.09	2.693
484.29	2.691
484.49	2.688
484.69	2.683
484.89	2.687
485.10	2.689
485.30	2.678
485.50	2.667
485.70	2.687
485.90	2.702
486.10	2.713
486.30	2.719
486.50	2.722
486.70	2.721
486.90	2.721
487.11	2.709
487.31	2.710
487.51	2.704
487.71	2.699
487.91	2.701
488.11	2.708
488.31	2.713
488.51	2.716
488.71	2.724
488.91	2.732
489.11	2.743
489.32	2.761
489.52	2.765
489.72	2.779
489.92	2.794
490.12	2.801
490.32	2.805
490.52	2.794
490.72	2.770
490.92	2.759
491.12	2.739
491.32	2.731
491.52	2.722
491.72	2.719
491.92	2.714
492.13	2.711
492.33	2.712
492.53	2.718
492.73	2.723
492.93	2.745
493.13	2.765
493.33	2.789
493.53	2.800
493.73	2.803
493.93	2.801
494.13	2.812
494.33	2.811
494.53	2.814
494.73	2.799
494.93	2.808
495.13	2.802
495.33	2.781
495.53	2.765
495.73	2.760
495.94	2.777
496.14	2.787
496.34	2.784
496.54	2.778
496.74	2.769
496.94	2.779
497.14	2.763
497.34	2.776
497.54	2.775
497.74	2.776
497.94	2.781
498.14	2.779
498.34	2.778
498.54	2.785
498.74	2.791
498.94	2.793
499.14	2.784
499.34	2.789
499.54	2.781
499.74	2.794
499.94	2.803
500.14	2.799
500.34	2.800
500.54	2.812
500.74	2.814
500.94	2.817
501.14	2.818
501.34	2.823
501.54	2.828
501.74	2.813
501.94	2.800
502.14	2.804
502.34	2.822
502.54	2.810
502.74	2.805
502.94	2.795
503.14	2.791
503.34	2.792
503.54	2.805
503.74	2.797
503.94	2.807
504.14	2.810
504.34	2.808
504.54	2.804
504.74	2.814
504.94	2.808
505.14	2.817
505.34	2.825
505.54	2.828
505.74	2.834
505.94	2.844
506.14	2.855
506.34	2.866
506.54	2.876
506.74	2.869
506.94	2.853
507.14	2.858
507.34	2.848
507.54	2.849
507.74	2.844
507.94	2.836
508.14	2.838
508.34	2.826
508.54	2.820
508.74	2.825
508.94	2.830
509.13	2.847
509.33	2.853
509.53	2.869
509.73	2.873
509.93	2.888
510.13	2.891
510.33	2.892
510.53	2.894
510.73	2.901
510.93	2.901
511.13	2.904
511.33	2.911
511.53	2.910
511.73	2.904
511.93	2.910
512.13	2.902
512.33	2.904
512.53	2.903
512.73	2.906
512.92	2.909
513.12	2.913
513.32	2.911
513.52	2.909
513.72	2.912
513.92	2.914
514.12	2.914
514.32	2.912
514.52	2.913
514.72	2.908
514.92	2.906
515.12	2.909
515.32	2.894
515.52	2.897
515.71	2.904
515.91	2.909
516.11	2.911
516.31	2.911
516.51	2.907
516.71	2.907
516.91	2.920
517.11	2.927
517.31	2.919
517.51	2.932
517.71	2.933
517.90	2.930
518.10	2.926
518.30	2.929
518.50	2.923
518.70	2.923
518.90	2.931
519.10	2.933
519.30	2.936
519.50	2.943
519.69	2.947
519.89	2.950
520.09	2.943
520.29	2.954
520.49	2.946
520.69	2.962
520.89	2.975
521.09	2.967
521.29	2.964
521.48	2.970
521.68	2.965
521.88	2.961
522.08	2.959
522.28	2.970
522.48	2.966
522.68	2.983
522.88	2.982
523.07	2.990
523.27	2.999
523.47	3.017
523.67	3.024
523.87	3.037
524.07	3.031
524.27	3.038
524.47	3.032
524.66	3.023
524.86	3.017
525.06	3.009
525.26	3.013
525.46	3.017
525.66	3.011
525.85	2.995
526.05	2.992
526.25	2.997
526.45	2.996
526.65	3.013
526.85	3.035
527.05	3.052
527.24	3.065
527.44	3.048
527.64	3.035
527.84	3.020
528.04	3.018
528.24	3.006
528.43	3.004
528.63	3.004
528.83	3.000
529.03	2.991
529.23	2.985
529.43	2.983
529.62	2.989
529.82	2.995
530.02	3.002
530.22	3.014
530.42	3.030
530.62	3.037
530.81	3.047
531.01	3.053
531.21	3.059
531.41	3.069
531.61	3.067
531.80	3.060
532.00	3.065
532.20	3.066
532.40	3.066
532.60	3.063
532.79	3.059
532.99	3.052
533.19	3.050
533.39	3.049
533.59	3.050
533.78	3.049
533.98	3.055
534.18	3.050
534.38	3.057
534.58	3.060
534.77	3.072
534.97	3.079
535.17	3.091
535.37	3.089
535.57	3.101
535.76	3.090
535.96	3.088
536.16	3.078
536.36	3.080
536.56	3.064
536.75	3.065
536.95	3.065
537.15	3.066
537.35	3.066
537.54	3.082
537.74	3.063
537.94	3.070
538.14	3.076
538.34	3.083
538.53	3.104
538.73	3.121
538.93	3.121
539.13	3.125
539.32	3.131
539.52	3.130
539.72	3.124
539.92	3.143
540.11	3.140
540.31	3.127
540.51	3.121
540.71	3.097
540.90	3.084
541.10	3.082
541.30	3.076
541.50	3.076
541.69	3.075
541.89	3.070
542.09	3.075
542.29	3.076
542.48	3.081
542.68	3.088
542.88	3.097
543.08	3.111
543.27	3.121
543.47	3.130
543.67	3.136
543.87	3.148
544.06	3.151
544.26	3.146
544.46	3.145
544.65	3.149
544.85	3.151
545.05	3.161
545.25	3.163
545.44	3.155
545.64	3.157
545.84	3.159
546.04	3.160
546.23	3.157
546.43	3.147
546.63	3.142
546.82	3.140
547.02	3.140
547.22	3.143
547.42	3.146
547.61	3.159
547.81	3.164
548.01	3.154
548.20	3.155
548.40	3.165
548.60	3.181
548.79	3.188
548.99	3.201
549.19	3.197
549.39	3.188
549.58	3.197
549.78	3.178
549.98	3.182
550.17	3.187
550.37	3.175
550.57	3.178
550.76	3.169
550.96	3.175
551.16	3.184
551.35	3.192
551.55	3.198
551.75	3.189
551.94	3.185
552.14	3.184
552.34	3.183
552.53	3.189
552.73	3.184
552.93	3.197
553.13	3.192
553.32	3.187
553.52	3.190
553.72	3.187
553.91	3.187
554.11	3.193
554.31	3.194
554.50	3.187
554.70	3.184
554.89	3.195
555.09	3.190
555.29	3.191
555.48	3.200
555.68	3.215
555.88	3.213
556.07	3.219
556.27	3.231
556.47	3.238
556.66	3.243
556.86	3.251
557.06	3.258
557.25	3.260
557.45	3.263
557.65	3.253
557.84	3.238
558.04	3.238
558.23	3.238
558.43	3.233
558.63	3.227
558.82	3.223
559.02	3.219
559.22	3.217
559.41	3.215
559.61	3.217
559.81	3.220
560.00	3.226
560.20	3.236
560.39	3.249
560.59	3.245
560.79	3.245
560.98	3.269
561.18	3.260
561.37	3.260
561.57	3.277
561.77	3.281
561.96	3.282
562.16	3.290
562.36	3.306
562.55	3.296
562.75	3.308
562.94	3.320
563.14	3.311
563.34	3.334
563.53	3.329
563.73	3.325
563.92	3.325
564.12	3.321
564.32	3.319
564.51	3.316
564.71	3.327
564.90	3.325
565.10	3.313
565.29	3.326
565.49	3.328
565.69	3.329
565.88	3.325
566.08	3.335
566.27	3.342
566.47	3.340
566.67	3.335
566.86	3.337
567.06	3.344
567.25	3.360
567.45	3.366
567.64	3.361
567.84	3.374
568.04	3.381
568.23	3.381
568.43	3.389
568.62	3.389
568.82	3.384
569.01	3.380
569.21	3.376
569.41	3.375
569.60	3.358
569.80	3.374
569.99	3.359
570.19	3.371
570.38	3.368
570.58	3.366
570.77	3.369
570.97	3.383
571.17	3.387
571.36	3.392
571.56	3.388
571.75	3.394
571.95	3.381
572.14	3.396
572.34	3.393
572.53	3.421
572.73	3.426
572.92	3.432
573.12	3.431
573.31	3.427
573.51	3.437
573.70	3.445
573.90	3.446
574.10	3.459
574.29	3.472
574.49	3.465
574.68	3.434
574.88	3.427
575.07	3.424
575.27	3.420
575.46	3.429
575.66	3.432
575.85	3.426
576.05	3.420
576.24	3.419
576.44	3.406
576.63	3.410
576.83	3.431
577.02	3.438
577.22	3.441
577.41	3.453
577.61	3.453
577.80	3.452
578.00	3.448
578.19	3.465
578.39	3.476
578.58	3.494
578.78	3.496
578.97	3.502
579.17	3.515
579.36	3.509
579.56	3.508
579.75	3.523
579.95	3.520
580.14	3.541
580.34	3.545
580.53	3.536
580.73	3.525
580.92	3.532
581.12	3.527
581.31	3.506
581.51	3.519
581.70	3.533
581.89	3.535
582.09	3.534
582.28	3.512
582.48	3.516
582.67	3.516
582.87	3.513
583.06	3.503
583.26	3.504
583.45	3.522
583.65	3.527
583.84	3.523
584.04	3.499
584.23	3.505
584.43	3.513
584.62	3.511
584.81	3.527
585.01	3.532
585.20	3.545
585.40	3.536
585.59	3.539
585.79	3.557
585.98	3.560
586.18	3.577
586.37	3.580
586.56	3.585
586.76	3.576
586.95	3.575
587.15	3.582
587.34	3.576
587.54	3.591
587.73	3.590
587.92	3.576
588.12	3.573
588.31	3.583
588.51	3.579
588.70	3.587
588.90	3.595
589.09	3.591
589.28	3.586
589.48	3.579
589.67	3.573
589.87	3.576
590.06	3.576
590.25	3.577
590.45	3.569
590.64	3.583
590.84	3.589
591.03	3.590
591.23	3.585
591.42	3.595
591.61	3.607
591.81	3.621
592.00	3.630
592.20	3.649
592.39	3.645
592.58	3.650
592.78	3.650
592.97	3.646
593.17	3.640
593.36	3.659
593.55	3.668
593.75	3.688
593.94	3.669
594.13	3.664
594.33	3.663
594.52	3.659
594.72	3.666
594.91	3.675
595.10	3.690
595.30	3.686
595.49	3.684
595.68	3.691
595.88	3.680
596.07	3.681
596.27	3.695
596.46	3.676
596.65	3.686
596.85	3.675
597.04	3.670
597.23	3.660
597.43	3.682
597.62	3.685
597.81	3.671
598.01	3.673
598.20	3.684
598.40	3.668
598.59	3.684
598.78	3.704
598.98	3.726
599.17	3.731
599.36	3.724
599.56	3.742
599.75	3.721
599.94	3.740
600.14	3.747
600.33	3.768
600.52	3.785
600.72	3.802
600.91	3.781
601.10	3.767
601.30	3.755
601.49	3.772
601.68	3.757
601.88	3.781
602.07	3.776
602.26	3.781
602.46	3.764
602.65	3.759
602.84	3.755
603.04	3.765
603.23	3.781
603.42	3.804
603.62	3.821
603.81	3.823
604.00	3.817
604.20	3.801
604.39	3.796
604.58	3.790
604.77	3.796
604.97	3.798
605.16	3.803
605.35	3.808
605.55	3.813
605.74	3.805
605.93	3.813
606.13	3.836
606.32	3.844
606.51	3.854
606.70	3.881
606.90	3.884
607.09	3.886
607.28	3.886
607.48	3.883
607.67	3.859
607.86	3.862
608.05	3.867
608.25	3.848
608.44	3.861
608.63	3.877
608.83	3.877
609.02	3.878
609.21	3.886
609.40	3.896
609.60	3.896
609.79	3.910
609.98	3.913
610.17	3.906
610.37	3.901
610.56	3.903
610.75	3.897
610.95	3.897
611.14	3.906
611.33	3.903
611.52	3.897
611.72	3.903
611.91	3.912
612.10	3.919
612.29	3.920
612.49	3.935
612.68	3.929
612.87	3.926
613.06	3.935
613.26	3.939
613.45	3.940
613.64	3.963
613.83	3.952
614.03	3.954
614.22	3.948
614.41	3.956
614.60	3.968
614.79	3.998
614.99	4.005
615.18	3.993
615.37	3.993
615.56	3.979
615.76	3.995
615.95	4.021
616.14	4.018
616.33	4.015
616.53	4.030
616.72	4.020
616.91	3.995
617.10	3.991
617.29	3.987
617.49	3.976
617.68	3.993
617.87	3.973
618.06	3.969
618.25	3.967
618.45	3.974
618.64	3.952
618.83	3.970
619.02	4.001
619.21	4.013
619.41	4.030
619.60	4.040
619.79	4.046
619.98	4.039
620.17	4.026
620.37	4.024
620.56	4.028
620.75	4.053
620.94	4.033
621.13	4.023
621.33	4.020
621.52	4.025
621.71	4.031
621.90	4.033
622.09	4.029
622.28	4.050
622.48	4.048
622.67	4.033
622.86	4.014
623.05	4.020
623.24	4.012
623.44	4.017
623.63	4.021
623.82	4.051
624.01	4.068
624.20	4.067
624.39	4.056
624.59	4.070
624.78	4.098
624.97	4.128
625.16	4.134
625.35	4.148
625.54	4.134
625.73	4.136
625.93	4.102
626.12	4.110
626.31	4.134
626.50	4.135
626.69	4.134
626.88	4.137
627.07	4.142
627.27	4.153
627.46	4.145
627.65	4.180
627.84	4.172
628.03	4.182
628.22	4.170
628.41	4.174
628.61	4.194
628.80	4.199
628.99	4.210
629.18	4.202
629.37	4.206
629.56	4.231
629.75	4.204
629.94	4.203
630.14	4.203
630.33	4.213
630.52	4.197
630.71	4.185
630.90	4.216
631.09	4.203
631.28	4.196
631.47	4.189
631.66	4.188
631.86	4.200
632.05	4.238
632.24	4.246
632.43	4.233
632.62	4.236
632.81	4.251
633.00	4.254
633.19	4.254
633.38	4.258
633.57	4.263
633.77	4.266
633.96	4.285
634.15	4.275
634.34	4.298
634.53	4.317
634.72	4.298
634.91	4.288
635.10	4.286
635.29	4.310
635.48	4.348
635.67	4.357
635.86	4.351
636.05	4.359
636.25	4.369
636.44	4.359
636.63	4.371
636.82	4.406
637.01	4.425
637.20	4.437
637.39	4.415
637.58	4.365
637.77	4.374
637.96	4.401
638.15	4.404
638.34	4.389
638.53	4.415
638.72	4.396
638.91	4.415
639.10	4.432
639.30	4.414
639.49	4.427
639.68	4.471
639.87	4.485
640.06	4.478
640.25	4.483
640.44	4.492
640.63	4.473
640.82	4.480
641.01	4.485
641.20	4.471
641.39	4.483
641.58	4.502
641.77	4.497
641.96	4.495
642.15	4.509
642.34	4.509
642.53	4.504
642.72	4.501
642.91	4.509
643.10	4.504
643.29	4.524
643.48	4.528
643.67	4.500
643.86	4.533
644.05	4.558
644.24	4.558
644.43	4.565
644.62	4.626
644.81	4.617
645.00	4.617
645.19	4.633
645.38	4.623
645.57	4.630
645.76	4.665
645.95	4.641
646.14	4.618
646.33	4.616
646.52	4.609
646.71	4.570
646.90	4.595
647.09	4.626
647.28	4.606
647.47	4.619
647.66	4.616
647.85	4.637
648.04	4.638
648.23	4.659
648.42	4.659
648.61	4.657
648.80	4.642
648.99	4.646
649.18	4.633
649.37	4.671
649.56	4.654
649.75	4.647
649.94	4.628
650.13	4.650
650.32	4.651
650.51	4.652
650.70	4.661
650.89	4.682
651.08	4.683
651.27	4.711
651.46	4.684
651.65	4.692
651.83	4.717
652.02	4.724
652.21	4.719
652.40	4.723
652.59	4.741
652.78	4.747
652.97	4.748
653.16	4.752
653.35	4.722
653.54	4.725
653.73	4.760
653.92	4.749
654.11	4.747
654.30	4.766
654.49	4.760
654.68	4.752
654.86	4.781
655.05	4.782
655.24	4.774
655.43	4.771
655.62	4.796
655.81	4.763
656.00	4.781
656.19	4.793
656.38	4.790
656.57	4.807
656.76	4.804
656.95	4.781
657.13	4.806
657.32	4.837
657.51	4.856
657.70	4.870
657.89	4.919
658.08	4.912
658.27	4.921
658.46	4.897
658.65	4.893
658.84	4.900
659.02	4.932
659.21	4.936
659.40	4.947
659.59	4.967
659.78	4.971
659.97	4.957
660.16	4.981
660.35	4.967
660.54	4.989
660.72	4.983
660.91	4.992
661.10	4.968
661.29	4.986
661.48	4.956
661.67	4.954
661.86	4.953
662.05	4.938
662.23	4.937
662.42	4.971
662.61	4.974
662.80	4.989
662.99	5.031
663.18	5.039
663.37	5.015
663.56	5.044
663.74	5.030
663.93	5.009
664.12	5.036
664.31	5.023
664.50	5.019
664.69	5.054
664.87	5.059
665.06	5.034
665.25	5.044
665.44	5.032
665.63	5.046
665.82	5.047
666.01	5.080
666.19	5.079
666.38	5.099
666.57	5.109
666.76	5.078
666.95	5.081
667.14	5.082
667.32	5.099
667.51	5.141
667.70	5.131
667.89	5.142
668.08	5.134
668.26	5.155
668.45	5.138
668.64	5.130
668.83	5.156
669.02	5.168
669.21	5.145
669.39	5.143
669.58	5.138
669.77	5.132
669.96	5.178
670.15	5.196
670.33	5.175
670.52	5.181
670.71	5.174
670.90	5.163
671.09	5.147
671.27	5.187
671.46	5.161
671.65	5.168
671.84	5.210
672.03	5.207
672.21	5.230
672.40	5.240
672.59	5.233
672.78	5.244
672.96	5.255
673.15	5.276
673.34	5.290
673.53	5.316
673.72	5.323
673.90	5.314
674.09	5.335
674.28	5.332
674.47	5.356
674.65	5.379
674.84	5.384
675.03	5.384
675.22	5.386
675.41	5.408
675.59	5.412
675.78	5.425
675.97	5.431
676.16	5.408
676.34	5.406
676.53	5.412
676.72	5.410
676.91	5.394
677.09	5.414
677.28	5.447
677.47	5.429
677.66	5.446
677.84	5.445
678.03	5.432
678.22	5.460
678.41	5.469
678.59	5.481
678.78	5.499
678.97	5.529
679.15	5.530
679.34	5.512
679.53	5.512
679.72	5.506
679.90	5.508
680.09	5.525
680.28	5.516
680.47	5.507
680.65	5.486
680.84	5.502
681.03	5.529
681.21	5.513
681.40	5.497
681.59	5.522
681.78	5.554
681.96	5.580
682.15	5.574
682.34	5.548
682.52	5.531
682.71	5.527
682.90	5.510
683.08	5.521
683.27	5.546
683.46	5.574
683.65	5.563
683.83	5.533
684.02	5.514
684.21	5.508
684.39	5.516
684.58	5.548
684.77	5.571
684.95	5.581
685.14	5.548
685.33	5.545
685.51	5.567
685.70	5.565
685.89	5.564
686.07	5.575
686.26	5.601
686.45	5.633
686.63	5.620
686.82	5.657
687.01	5.663
687.20	5.701
687.38	5.709
687.57	5.716
687.75	5.733
687.94	5.780
688.13	5.800
688.31	5.793
688.50	5.834
688.69	5.824
688.87	5.831
689.06	5.826
689.25	5.805
689.43	5.814
689.62	5.812
689.81	5.810
689.99	5.819
690.18	5.782
690.37	5.790
690.55	5.754
690.74	5.794
690.93	5.775
691.11	5.810
691.30	5.817
691.48	5.828
691.67	5.813
691.86	5.816
692.04	5.786
692.23	5.840
692.42	5.882
692.60	5.906
692.79	5.906
692.97	5.930
693.16	5.968
693.35	5.990
693.53	6.005
693.72	6.026
693.90	6.050
694.09	6.066
694.28	6.058
694.46	6.041
694.65	6.024
694.83	6.052
695.02	6.033
695.21	6.017
695.39	6.010
695.58	6.036
695.76	6.039
695.95	6.019
696.14	6.037
696.32	6.030
696.51	6.051
696.69	6.082
696.88	6.095
697.07	6.130
697.25	6.146
697.44	6.141
697.62	6.122
697.81	6.104
697.99	6.137
698.18	6.146
698.37	6.165
698.55	6.186
698.74	6.187
698.92	6.164
699.11	6.159
699.29	6.167
699.48	6.186
699.67	6.205
699.85	6.242
700.04	6.235
700.22	6.250
700.41	6.287
700.59	6.256
700.78	6.243
700.96	6.275
701.15	6.277
701.34	6.252
701.52	6.260
701.71	6.241
701.89	6.269
702.08	6.307
702.26	6.302
702.45	6.253
702.63	6.243
702.82	6.252
703.00	6.259
703.19	6.273
703.38	6.282
703.56	6.279
703.75	6.289
703.93	6.289
704.12	6.283
704.30	6.300
704.49	6.341
704.67	6.419
704.86	6.439
705.04	6.465
705.23	6.475
705.41	6.498
705.60	6.520
705.78	6.533
705.97	6.545
706.15	6.528
706.34	6.536
706.52	6.546
706.71	6.536
706.89	6.538
707.08	6.524
707.26	6.528
707.45	6.522
707.63	6.510
707.82	6.532
708.00	6.519
708.19	6.502
708.37	6.510
708.56	6.532
708.74	6.528
708.93	6.535
709.11	6.550
709.30	6.554
709.48	6.560
709.67	6.613
709.85	6.593
710.04	6.632
710.22	6.709
710.41	6.680
710.59	6.655
710.77	6.668
710.96	6.680
711.14	6.620
711.33	6.639
711.51	6.651
711.70	6.603
711.88	6.637
712.07	6.569
712.25	6.550
712.44	6.569
712.62	6.557
712.80	6.554
712.99	6.565
713.17	6.623
713.36	6.591
713.54	6.646
713.73	6.673
713.91	6.676
714.10	6.713
714.28	6.713
714.46	6.740
714.65	6.755
714.83	6.774
715.02	6.776
715.20	6.798
715.39	6.820
715.57	6.792
715.75	6.823
715.94	6.821
716.12	6.849
716.31	6.825
716.49	6.835
716.68	6.845
716.86	6.860
717.04	6.870
717.23	6.887
717.41	6.944
717.60	6.951
717.78	6.944
717.96	6.943
718.15	6.940
718.33	6.979
718.52	6.975
718.70	7.052
718.88	7.041
719.07	7.102
719.25	7.062
719.44	7.017
719.62	7.041
719.80	7.051
719.99	7.078
720.17	7.066
720.36	7.066
720.54	7.061
720.72	7.007
720.91	7.028
721.09	6.972
721.27	7.007
721.46	7.039
721.64	7.013
721.83	7.003
722.01	7.007
722.19	7.037
722.38	6.999
722.56	6.992
722.74	7.003
722.93	6.998
723.11	7.013
723.30	7.021
723.48	7.044
723.66	7.050
723.85	7.107
724.03	7.131
724.21	7.155
724.40	7.224
724.58	7.270
724.76	7.284
724.95	7.292
725.13	7.349
725.31	7.410
725.50	7.421
725.68	7.437
725.86	7.427
726.05	7.429
726.23	7.440
726.41	7.445
726.60	7.433
726.78	7.426
726.96	7.417
727.15	7.403
727.33	7.369
727.51	7.341
727.70	7.341
727.88	7.330
728.06	7.335
728.25	7.277
728.43	7.278
728.61	7.309
728.80	7.332
728.98	7.371
729.16	7.369
729.34	7.399
729.53	7.400
729.71	7.443
729.89	7.436
730.08	7.461
730.26	7.501
730.44	7.511
730.63	7.531
730.81	7.560
730.99	7.558
731.17	7.608
731.36	7.595
731.54	7.636
731.72	7.626
731.91	7.645
732.09	7.614
732.27	7.650
732.45	7.672
732.64	7.669
732.82	7.670
733.00	7.692
733.19	7.660
733.37	7.691
733.55	7.682
733.73	7.702
733.92	7.740
734.10	7.779
734.28	7.791
734.46	7.792
734.65	7.792
734.83	7.760
735.01	7.677
735.19	7.673
735.38	7.657
735.56	7.655
735.74	7.660
735.92	7.625
736.11	7.613
736.29	7.607
736.47	7.596
736.65	7.619
736.84	7.700
737.02	7.824
737.20	7.827
737.38	7.892
737.57	7.885
737.75	7.861
737.93	7.868
738.11	7.889
738.30	7.907
738.48	7.951
738.66	7.944
738.84	7.936
739.02	7.850
739.21	7.920
739.39	7.896
739.57	7.921
739.75	7.945
739.93	7.971
740.12	7.959
740.30	8.018
740.48	8.009
740.66	8.036
740.85	8.054
741.03	8.132
741.21	8.082
741.39	8.092
741.57	8.119
741.76	8.156
741.94	8.156
742.12	8.199
742.30	8.154
742.48	8.155
742.66	8.156
742.85	8.088
743.03	8.138
743.21	8.160
743.39	8.147
743.57	8.161
743.76	8.164
743.94	8.140
744.12	8.080
744.30	8.073
744.48	8.112
744.66	8.140
744.85	8.175
745.03	8.131
745.21	8.175
745.39	8.205
745.57	8.268
745.75	8.248
745.94	8.309
746.12	8.397
746.30	8.465
746.48	8.438
746.66	8.440
746.84	8.450
747.02	8.532
747.21	8.552
747.39	8.513
747.57	8.456
747.75	8.479
747.93	8.501
748.11	8.454
748.29	8.407
748.48	8.438
748.66	8.404
748.84	8.402
749.02	8.349
749.20	8.334
749.38	8.313
749.56	8.366
749.75	8.378
749.93	8.382
750.11	8.438
750.29	8.422
750.47	8.476
750.65	8.479
750.83	8.500
751.01	8.498
751.19	8.528
751.38	8.641
751.56	8.607
751.74	8.582
751.92	8.621
752.10	8.652
752.28	8.741
752.46	8.740
752.64	8.805
752.82	8.854
753.00	8.917
753.19	8.924
753.37	8.875
753.55	8.911
753.73	8.916
753.91	8.902
754.09	8.815
754.27	8.769
754.45	8.751
754.63	8.791
754.81	8.748
754.99	8.725
755.17	8.740
755.36	8.759
755.54	8.789
755.72	8.835
755.90	8.829
756.08	8.923
756.26	8.958
756.44	8.936
756.62	8.896
756.80	8.973
756.98	8.967
757.16	8.907
757.34	8.987
757.52	9.000
757.70	8.989
757.88	9.019
758.06	8.999
758.24	8.936
758.42	8.975
758.61	9.039
758.79	8.973
758.97	8.954
759.15	8.959
759.33	8.932
759.51	8.900
759.69	8.959
759.87	8.941
760.05	8.983
760.23	9.041
760.41	9.054
760.59	9.001
760.77	9.070
760.95	9.078
761.13	9.088
761.31	9.113
761.49	9.098
761.67	9.088
761.85	9.137
762.03	9.128
762.21	9.145
762.39	9.144
762.57	9.191
762.75	9.178
762.93	9.231
763.11	9.241
763.29	9.216
763.47	9.228
763.65	9.208
763.83	9.168
764.01	9.150
764.19	9.142
764.37	9.200
764.55	9.153
764.73	9.158
764.91	9.142
765.09	9.173
765.27	9.145
765.45	9.135
765.63	9.168
765.81	9.216
765.99	9.255
766.17	9.294
766.35	9.256
766.53	9.294
766.71	9.316
766.89	9.369
767.07	9.370
767.25	9.420
767.43	9.477
767.61	9.510
767.78	9.527
767.96	9.559
768.14	9.510
768.32	9.519
768.50	9.592
768.68	9.611
768.86	9.583
769.04	9.615
769.22	9.724
769.40	9.765
769.58	9.762
769.76	9.748
769.94	9.772
770.12	9.872
770.30	9.861
770.48	9.738
770.66	9.781
770.84	9.782
771.01	9.716
771.19	9.589
771.37	9.630
771.55	9.632
771.73	9.651
771.91	9.646
772.09	9.674
772.27	9.694
772.45	9.847
772.63	9.792
772.81	9.844
772.99	9.821
773.16	9.874
773.34	9.797
773.52	9.828
773.70	9.805
773.88	9.887
774.06	9.839
774.24	9.851
774.42	9.795
774.60	9.835
774.78	9.774
774.95	9.842
775.13	9.888
775.31	9.971
775.49	10.008
775.67	10.092
775.85	9.979
776.03	9.995
776.21	9.974
776.38	10.032
776.56	10.048
776.74	10.134
776.92	10.180
777.10	10.121
777.28	10.089
777.46	10.047
777.64	10.049
777.81	10.121
777.99	10.139
778.17	10.146
778.35	10.158
778.53	10.208
778.71	10.276
778.89	10.273
779.06	10.362
779.24	10.408
779.42	10.399
779.60	10.357
779.78	10.313
779.96	10.402
780.13	10.467
780.31	10.578
780.49	10.531
780.67	10.460
780.85	10.500
781.03	10.560
781.20	10.514
781.38	10.530
781.56	10.610
781.74	10.629
781.92	10.515
782.10	10.485
782.27	10.455
782.45	10.482
782.63	10.497
782.81	10.537
782.99	10.554
783.17	10.609
783.34	10.650
783.52	10.664
783.70	10.799
783.88	10.823
784.06	10.910
784.23	10.865
784.41	10.841
784.59	10.852
784.77	10.787
784.95	10.770
785.12	10.681
785.30	10.665
785.48	10.623
785.66	10.610
785.83	10.669
786.01	10.577
786.19	10.579
786.37	10.523
786.55	10.552
786.72	10.647
786.90	10.677
787.08	10.874
787.26	10.950
787.43	11.027
787.61	10.925
787.79	10.897
787.97	10.943
788.15	10.903
788.32	10.939
788.50	10.997
788.68	10.923
788.86	10.847
789.03	10.794
789.21	10.710
789.39	10.727
789.57	10.768
789.74	10.844
789.92	10.915
790.10	10.941
790.28	11.084
790.45	11.026
790.63	11.161
790.81	11.163
790.99	11.105
791.16	11.169
791.34	11.132
791.52	11.187
791.69	11.145
791.87	11.057
792.05	11.118
792.23	11.060
792.40	11.050
792.58	10.910
792.76	11.006
792.94	11.015
793.11	11.049
793.29	11.099
793.47	11.163
793.64	11.200
793.82	11.305
794.00	11.283
794.18	11.228
794.35	11.302
794.53	11.360
794.71	11.359
794.88	11.393
795.06	11.420
795.24	11.379
795.41	11.327
795.59	11.377
795.77	11.329
795.94	11.279
796.12	11.392
796.30	11.371
796.48	11.454
796.65	11.501
796.83	11.508
797.01	11.544
797.18	11.513
797.36	11.556
797.54	11.533
797.71	11.556
797.89	11.626
798.07	11.539
798.24	11.636
798.42	11.556
798.60	11.510
798.77	11.571
798.95	11.449
799.13	11.496
799.30	11.449
799.48	11.534
799.66	11.512
799.83	11.516
800.01	11.564
800.18	11.524
800.36	11.648
800.54	11.617
800.71	11.506
800.89	11.549
801.07	11.485
801.24	11.640
801.42	11.695
801.60	11.864
801.77	11.856
801.95	11.874
802.12	11.913
802.30	11.928
802.48	11.957
802.65	12.133
802.83	12.318
803.01	12.514
803.18	12.472
803.36	12.377
803.53	12.285
803.71	12.282
803.89	12.225
804.06	12.200
804.24	12.165
804.41	12.207
804.59	12.210
804.77	12.326
804.94	12.256
805.12	12.165
805.29	12.134
805.47	12.149
805.65	12.294
805.82	12.388
806.00	12.373
806.17	12.277
806.35	12.348
806.53	12.307
806.70	12.194
806.88	12.262
807.05	12.216
807.23	12.226
807.40	12.193
807.58	12.120
807.76	12.214
807.93	12.236
808.11	12.282
808.28	12.312
808.46	12.372
808.63	12.355
808.81	12.344
808.99	12.485
809.16	12.514
809.34	12.434
809.51	12.340
809.69	12.382
809.86	12.409
810.04	12.399
810.21	12.261
810.39	12.333
810.57	12.239
810.74	12.147
810.92	12.058
811.09	12.042
811.27	12.079
811.44	12.257
811.62	12.198
811.79	12.157
811.97	12.220
812.14	12.229
812.32	12.040
812.49	12.122
812.67	12.251
812.84	12.306
813.02	12.303
813.19	12.437
813.37	12.266
813.55	12.191
813.72	12.265
813.90	12.226
814.07	12.270
814.25	12.409
814.42	12.522
814.60	12.413
814.77	12.355
814.95	12.532
815.12	12.468
815.30	12.580
815.47	12.667
815.65	12.799
815.82	13.071
816.00	13.302
816.17	13.264
816.35	13.120
816.52	13.308
816.69	13.458
816.87	13.507
817.04	13.524
817.22	13.505
817.39	13.698
817.57	13.644
817.74	13.576
817.92	13.594
818.09	13.615
818.27	13.671
818.44	13.570
818.62	13.373
818.79	13.251
818.97	13.345
819.14	13.524
819.32	13.316
819.49	13.326
819.66	13.223
819.84	13.096
820.01	13.149
820.19	13.142
820.36	13.126
820.54	13.227
820.71	13.271
820.89	13.274
821.06	13.276
821.23	13.288
821.41	13.243
821.58	13.168
821.76	13.050
821.93	12.936
822.11	12.871
822.28	12.810
822.45	12.769
822.63	12.751
822.80	12.723
822.98	12.718
823.15	12.711
823.33	12.711
823.50	12.736
823.67	12.774
823.85	12.819
824.02	12.870
824.20	12.958
824.37	13.044
824.54	13.114
824.72	13.235
824.89	13.302
825.07	13.375
825.24	13.435
825.41	13.467
825.59	13.525
825.76	13.580
825.94	13.662
826.11	13.734
826.28	13.787
826.46	13.824
826.63	13.773
826.80	13.719
826.98	13.677
827.15	13.660
827.33	13.664
827.50	13.637
827.67	13.675
827.85	13.649
828.02	13.616
828.19	13.616
828.37	13.588
828.54	13.600
828.72	13.647
828.89	13.683
829.06	13.694
829.24	13.803
829.41	13.898
829.58	13.899
829.76	13.942
829.93	14.029
830.10	14.022
830.28	14.085
830.45	14.197
830.62	14.277
830.80	14.418
830.97	14.494
831.14	14.398
831.32	14.397
831.49	14.407
831.66	14.471
831.84	14.446
832.01	14.503
832.18	14.563
832.36	14.468
832.53	14.457
832.70	14.506
832.88	14.557
833.05	14.570
833.22	14.485
833.40	14.489
833.57	14.442
833.74	14.406
833.91	14.397
834.09	14.346
834.26	14.344
834.43	14.309
834.61	14.193
834.78	14.150
834.95	14.119
835.13	14.146
835.30	14.086
835.47	14.122
835.64	14.151
835.82	14.154
835.99	14.184
836.16	14.294
836.34	14.379
836.51	14.539
836.68	14.675
836.85	14.710
837.03	14.853
837.20	15.000
837.37	14.965
837.54	14.900
837.72	14.866
837.89	14.896
838.06	14.912
838.24	14.811
838.41	14.848
838.58	14.708
838.75	14.686
838.93	14.612
839.10	14.604
839.27	14.777
839.44	14.856
839.62	15.014
839.79	15.132
839.96	14.959
840.13	14.907
840.31	14.734
840.48	14.792
840.65	14.788
840.82	14.803
840.99	14.868
841.17	14.706
841.34	14.796
841.51	14.780
841.68	14.760
841.86	14.793
842.03	15.029
842.20	15.169
842.37	15.382
842.55	15.503
842.72	15.340
842.89	15.310
843.06	15.422
843.23	15.145
843.41	15.152
843.58	15.056
843.75	15.287
843.92	15.152
844.09	15.466
844.27	15.025
844.44	15.029
844.61	15.206
844.78	15.235
844.95	15.292
845.13	15.732
845.30	15.670
845.47	15.674
845.64	15.650
845.81	15.712
845.98	15.203
846.16	15.166
846.33	15.210
846.50	15.323
846.67	15.311
846.84	15.386
847.02	15.648
847.19	15.836
847.36	15.782
847.53	15.375
847.70	15.078
847.87	15.460
848.04	15.864
848.22	15.717
848.39	15.516
848.56	15.718
848.73	15.544
848.90	14.982
849.07	14.929
849.25	14.849
849.42	14.940
849.59	15.285
849.76	15.235
849.93	15.223
850.10	15.160
850.27	15.164
850.45	15.132
850.62	15.402
850.79	15.616
850.96	15.332
851.13	15.641
851.30	15.630
851.47	15.591
851.64	15.510
851.82	15.482
851.99	15.655
852.16	15.769
852.33	15.493
852.50	15.502
852.67	15.373
852.84	15.478
853.01	15.402
853.18	15.704
853.35	15.361
853.53	15.400
853.70	15.614
853.87	15.873
854.04	15.948
854.21	16.344
854.38	16.151
854.55	16.370
854.72	16.291
854.89	16.299
855.06	16.059
855.23	16.331
855.41	15.961
855.58	15.939
855.75	16.026
855.92	16.211
856.09	16.377
856.26	16.580
856.43	16.368
856.60	16.544
856.77	16.618
856.94	16.705
857.11	16.844
857.28	17.294
857.45	16.910
857.62	16.616
857.80	16.182
857.97	15.730
858.14	15.623
858.31	15.745
858.48	15.916
858.65	15.802
858.82	16.027
858.99	15.913
859.16	15.887
859.33	16.212
859.50	16.414
859.67	16.815
859.84	16.758
860.01	16.913
860.18	16.832
860.35	16.538
860.52	17.023
860.69	16.925
860.86	17.114
861.03	16.923
861.20	16.624
861.37	16.341
861.54	16.408
861.71	16.062
861.88	16.246
862.05	16.578
862.22	16.788
862.39	16.355
862.56	15.947
862.73	16.001
862.90	16.174
863.07	16.330
863.24	16.539
863.41	15.932
863.58	16.605
863.75	16.241
863.92	15.878
864.09	15.866
864.26	15.799
864.43	16.106
864.60	16.284
864.77	16.201
864.94	16.636
865.11	16.820
865.28	17.428
865.45	17.410
865.62	17.578
865.79	17.874
865.96	17.798
866.13	17.908
866.30	18.077
866.47	17.630
866.64	17.518
866.81	17.161
866.98	17.193
867.15	16.771
867.32	16.635
867.49	16.321
867.66	16.248
867.82	16.429
867.99	16.587
868.16	17.005
868.33	17.262
868.50	17.462
868.67	17.539
868.84	17.620
869.01	18.001
869.18	18.411
869.35	18.837
869.52	19.068
869.69	19.226
869.86	19.340
870.03	19.009
870.19	18.739
870.36	18.879
870.53	18.616
870.70	18.228
870.87	18.539
871.04	18.054
871.21	17.806
871.38	17.877
871.55	17.468
871.72	17.338
871.89	17.164
872.05	17.208
872.22	16.991
872.39	17.221
872.56	17.563
872.73	17.191
872.90	17.489
873.07	17.648
873.24	17.361
873.41	17.582
873.57	17.426
873.74	17.703
873.91	17.564
874.08	17.555
874.25	17.634
874.42	17.590
874.59	17.843
874.76	17.648
874.92	17.478
875.09	17.622
875.26	17.906
875.43	18.011
875.60	17.695
875.77	18.093
875.94	18.141
876.11	18.069
876.27	18.013
876.44	17.861
876.61	18.010
876.78	18.191
876.95	18.128
877.12	17.862
877.28	17.941
877.45	18.069
877.62	17.937
877.79	18.253
877.96	18.569
878.13	18.322
878.29	18.232
878.46	18.230
878.63	18.387
878.80	18.201
878.97	18.280
879.14	18.423
879.30	18.503
879.47	18.623
879.64	18.446
879.81	18.412
879.98	18.612
880.14	18.720
880.31	18.754
880.48	18.698
880.65	18.805
880.82	18.669
880.98	18.581
881.15	18.475
881.32	18.334
881.49	18.235
881.66	18.087
881.82	17.978
881.99	17.903
882.16	17.829
882.33	17.794
882.50	17.753
882.66	17.754
882.83	17.755
883.00	17.746
883.17	17.786
883.33	17.826
883.50	17.941
883.67	18.042
883.84	18.148
884.01	18.266
884.17	18.337
884.34	18.412
884.51	18.475
884.68	18.540
884.84	18.622
885.01	18.667
885.18	18.749
885.35	18.724
885.51	18.780
885.68	18.812
885.85	18.867
886.02	18.893
886.18	18.973
886.35	18.986
886.52	18.951
886.69	18.999
886.85	19.159
887.02	19.188
887.19	19.224
887.35	19.121
887.52	19.198
887.69	19.254
887.86	19.387
888.02	19.286
888.19	19.364
888.36	20.531
888.53	20.622
888.69	19.466
888.86	17.430
889.03	18.605
>>>>>End Spectral Data<<<<<
