OOIBase32 Version 2.0.6.5 Data File
++++++++++++++++++++++++++++++++++++
Date: 11-17-2016, 11:08:53
User: Valued Ocean Optics Customer
Spectrometer Serial Number: USB4C01507
Spectrometer Channel: Master
Integration Time (msec): 49
Spectra Averaged: 25
Boxcar Smoothing: 5
Correct for Electrical Dark: Enabled
Time Normalized: Disabled
Dual-beam Reference: Disabled
Reference Channel: Master
Temperature: Not acquired
Spectrometer Type: S4000
ADC Type: USB4000
Number of Pixels in File: 3648
Graph Title: 
>>>>>Begin Spectral Data<<<<<
178.53	1617.319
178.74	2239.193
178.96	141.720
179.18	43.785
179.39	196.781
179.61	33.531
179.82	82.268
180.04	105.727
180.25	74.936
180.47	-185.477
180.69	65.573
180.90	-199.774
181.12	-268.694
181.33	-114.836
181.55	3.598
181.76	-3987.142
181.98	115.087
182.20	322.916
182.41	5.476
182.63	161.874
182.84	50.904
183.06	44.710
183.27	43.482
183.49	39.911
183.71	55.796
183.92	51.029
184.14	45.514
184.35	55.396
184.57	52.095
184.78	39.881
185.00	36.078
185.21	34.632
185.43	45.298
185.65	51.120
185.86	54.821
186.08	46.643
186.29	46.551
186.51	47.327
186.72	37.219
186.94	41.690
187.15	50.583
187.37	54.380
187.58	63.237
187.80	60.314
188.02	56.358
188.23	55.826
188.45	57.148
188.66	68.733
188.88	73.482
189.09	72.595
189.31	73.545
189.52	65.394
189.74	59.084
189.95	58.385
190.17	55.586
190.38	57.316
190.60	51.120
190.82	53.404
191.03	42.666
191.25	39.925
191.46	35.698
191.68	29.830
191.89	35.698
192.11	39.588
192.32	33.712
192.54	37.436
192.75	32.792
192.97	33.918
193.18	31.462
193.40	31.416
193.61	29.265
193.83	36.810
194.04	32.736
194.26	39.336
194.48	35.825
194.69	41.086
194.91	34.232
195.12	33.647
195.34	32.876
195.55	33.409
195.77	31.534
195.98	33.767
196.20	25.338
196.41	22.806
196.63	10.557
196.84	15.009
197.06	15.974
197.27	21.407
197.49	23.294
197.70	20.086
197.92	15.767
198.13	19.200
198.35	3.756
198.56	0.486
198.78	0.068
198.99	8.228
199.21	7.647
199.42	6.175
199.64	7.598
199.85	8.821
200.07	16.111
200.28	15.745
200.50	11.347
200.71	24.392
200.93	32.023
201.14	38.562
201.36	35.456
201.57	38.769
201.79	38.014
202.00	34.066
202.22	39.130
202.43	38.295
202.65	39.500
202.86	38.860
203.08	37.792
203.29	31.582
203.51	31.359
203.72	31.106
203.94	31.917
204.15	32.161
204.37	34.898
204.58	30.426
204.80	30.183
205.01	31.634
205.22	32.204
205.44	32.096
205.65	30.180
205.87	26.830
206.08	29.470
206.30	25.343
206.51	22.902
206.73	20.046
206.94	19.759
207.16	16.434
207.37	12.624
207.59	16.568
207.80	16.973
208.02	24.430
208.23	26.867
208.45	24.630
208.66	24.636
208.88	28.013
209.09	31.553
209.30	32.417
209.52	32.041
209.73	38.046
209.95	38.021
210.16	36.200
210.38	33.435
210.59	29.663
210.81	28.537
211.02	28.414
211.24	25.964
211.45	23.498
211.66	21.103
211.88	22.575
212.09	21.746
212.31	19.973
212.52	21.527
212.74	18.478
212.95	18.558
213.17	18.451
213.38	19.222
213.60	19.457
213.81	19.552
214.02	22.272
214.24	21.821
214.45	15.149
214.67	15.459
214.88	13.119
215.10	14.254
215.31	14.776
215.53	14.726
215.74	13.703
215.95	16.243
216.17	15.673
216.38	15.147
216.60	15.041
216.81	17.790
217.03	18.296
217.24	19.242
217.45	19.574
217.67	19.790
217.88	19.457
218.10	20.546
218.31	18.725
218.53	18.258
218.74	17.392
218.95	13.145
219.17	11.581
219.38	9.923
219.60	10.963
219.81	11.502
220.03	11.932
220.24	11.320
220.45	8.753
220.67	7.617
220.88	8.565
221.10	7.991
221.31	9.721
221.53	10.567
221.74	9.645
221.95	8.623
222.17	7.156
222.38	6.698
222.60	6.504
222.81	5.939
223.02	6.755
223.24	6.256
223.45	7.108
223.67	6.262
223.88	5.577
224.09	5.885
224.31	6.503
224.52	8.567
224.74	7.584
224.95	7.882
225.16	8.500
225.38	7.827
225.59	7.236
225.81	6.287
226.02	6.662
226.23	6.416
226.45	6.297
226.66	5.652
226.88	4.708
227.09	5.203
227.30	4.874
227.52	4.900
227.73	4.620
227.95	4.588
228.16	4.639
228.37	4.553
228.59	4.555
228.80	4.546
229.02	4.531
229.23	4.500
229.44	4.516
229.66	4.504
229.87	4.510
230.08	4.557
230.30	4.642
230.51	4.670
230.73	4.820
230.94	4.914
231.15	4.936
231.37	4.924
231.58	5.039
231.80	4.908
232.01	4.947
232.22	4.963
232.44	5.125
232.65	5.089
232.86	4.762
233.08	4.575
233.29	4.540
233.51	4.506
233.72	4.522
233.93	4.662
234.15	4.512
234.36	4.567
234.57	4.420
234.79	4.634
235.00	4.776
235.21	5.189
235.43	5.324
235.64	5.127
235.86	5.082
236.07	5.132
236.28	4.998
236.50	5.103
236.71	5.495
236.92	5.419
237.14	5.457
237.35	5.264
237.56	5.177
237.78	5.060
237.99	5.126
238.20	5.255
238.42	5.558
238.63	5.494
238.84	5.798
239.06	5.309
239.27	5.391
239.48	5.246
239.70	5.307
239.91	5.010
240.13	4.882
240.34	4.855
240.55	4.784
240.77	4.663
240.98	4.703
241.19	4.535
241.41	4.502
241.62	4.367
241.83	4.297
242.05	4.296
242.26	4.332
242.47	4.374
242.69	4.441
242.90	4.428
243.11	4.425
243.33	4.404
243.54	4.432
243.75	4.610
243.97	4.714
244.18	4.826
244.39	4.924
244.61	4.907
244.82	4.977
245.03	4.833
245.24	4.825
245.46	4.745
245.67	4.751
245.88	4.711
246.10	4.547
246.31	4.501
246.52	4.383
246.74	4.323
246.95	4.340
247.16	4.308
247.38	4.293
247.59	4.338
247.80	4.351
248.02	4.315
248.23	4.318
248.44	4.383
248.66	4.407
248.87	4.540
249.08	4.623
249.29	4.723
249.51	4.913
249.72	5.123
249.93	5.172
250.15	5.333
250.36	5.363
250.57	5.128
250.79	5.215
251.00	5.187
251.21	5.138
251.42	5.016
251.64	4.870
251.85	4.818
252.06	4.841
252.28	4.640
252.49	4.617
252.70	4.661
252.91	4.844
253.13	4.685
253.34	4.733
253.55	4.721
253.77	4.915
253.98	5.105
254.19	4.835
254.40	4.763
254.62	5.078
254.83	5.032
255.04	4.976
255.26	4.807
255.47	4.829
255.68	4.820
255.89	4.833
256.11	4.708
256.32	4.597
256.53	4.966
256.75	4.907
256.96	4.682
257.17	4.774
257.38	4.988
257.60	5.049
257.81	4.920
258.02	4.809
258.23	4.626
258.45	4.549
258.66	4.595
258.87	4.449
259.09	4.345
259.30	4.341
259.51	4.252
259.72	4.166
259.94	4.123
260.15	4.145
260.36	4.207
260.57	4.236
260.79	4.238
261.00	4.160
261.21	4.185
261.42	4.275
261.64	4.282
261.85	4.269
262.06	4.313
262.27	4.396
262.49	4.417
262.70	4.305
262.91	4.421
263.12	4.367
263.34	4.430
263.55	4.391
263.76	4.266
263.97	4.388
264.19	4.479
264.40	4.504
264.61	4.469
264.82	4.455
265.04	4.477
265.25	4.269
265.46	4.198
265.67	4.197
265.88	4.222
266.10	4.210
266.31	4.152
266.52	4.164
266.73	4.252
266.95	4.307
267.16	4.382
267.37	4.369
267.58	4.412
267.80	4.514
268.01	4.532
268.22	4.457
268.43	4.518
268.64	4.575
268.86	4.583
269.07	4.493
269.28	4.306
269.49	4.262
269.71	4.231
269.92	4.079
270.13	4.136
270.34	4.096
270.55	4.136
270.77	4.192
270.98	4.136
271.19	4.173
271.40	4.163
271.61	4.158
271.83	4.141
272.04	4.100
272.25	4.217
272.46	4.124
272.68	4.207
272.89	4.230
273.10	4.123
273.31	4.027
273.52	3.986
273.74	3.954
273.95	3.943
274.16	3.988
274.37	4.029
274.58	4.028
274.80	4.038
275.01	4.013
275.22	4.025
275.43	4.182
275.64	4.382
275.86	4.394
276.07	4.384
276.28	4.534
276.49	4.459
276.70	4.376
276.91	4.336
277.13	4.310
277.34	4.290
277.55	4.282
277.76	4.171
277.97	4.021
278.19	3.952
278.40	4.051
278.61	3.987
278.82	3.972
279.03	4.069
279.24	4.069
279.46	4.097
279.67	4.035
279.88	3.968
280.09	4.007
280.30	4.024
280.52	4.116
280.73	4.112
280.94	4.138
281.15	4.132
281.36	4.205
281.57	4.308
281.79	4.307
282.00	4.332
282.21	4.321
282.42	4.323
282.63	4.415
282.84	4.349
283.06	4.276
283.27	4.336
283.48	4.270
283.69	4.152
283.90	4.099
284.11	4.122
284.32	4.094
284.54	4.130
284.75	4.135
284.96	4.046
285.17	4.083
285.38	4.086
285.59	4.054
285.81	4.172
286.02	4.251
286.23	4.212
286.44	4.242
286.65	4.297
286.86	4.287
287.07	4.251
287.29	4.290
287.50	4.308
287.71	4.349
287.92	4.400
288.13	4.365
288.34	4.374
288.55	4.533
288.77	4.599
288.98	4.589
289.19	4.626
289.40	4.722
289.61	4.808
289.82	4.835
290.03	4.794
290.24	4.847
290.46	4.892
290.67	4.915
290.88	4.901
291.09	4.867
291.30	4.953
291.51	5.047
291.72	5.114
291.93	5.231
292.15	5.324
292.36	5.560
292.57	5.521
292.78	5.516
292.99	5.573
293.20	5.695
293.41	5.664
293.62	5.728
293.84	5.785
294.05	5.845
294.26	5.757
294.47	5.785
294.68	5.764
294.89	5.899
295.10	5.972
295.31	5.996
295.52	5.971
295.73	6.149
295.95	6.148
296.16	6.228
296.37	6.219
296.58	6.296
296.79	6.282
297.00	6.276
297.21	6.281
297.42	6.238
297.63	6.235
297.84	6.243
298.06	6.198
298.27	6.226
298.48	6.220
298.69	6.235
298.90	6.271
299.11	6.369
299.32	6.388
299.53	6.424
299.74	6.560
299.95	6.687
300.16	6.730
300.38	6.821
300.59	6.837
300.80	6.822
301.01	6.833
301.22	6.857
301.43	6.860
301.64	6.945
301.85	6.924
302.06	6.962
302.27	6.979
302.48	7.093
302.69	7.092
302.91	7.063
303.12	7.158
303.33	7.218
303.54	7.264
303.75	7.265
303.96	7.319
304.17	7.383
304.38	7.394
304.59	7.424
304.80	7.379
305.01	7.458
305.22	7.562
305.43	7.595
305.64	7.700
305.85	7.638
306.06	7.785
306.28	7.879
306.49	7.998
306.70	8.050
306.91	8.079
307.12	8.152
307.33	8.119
307.54	8.201
307.75	8.193
307.96	8.231
308.17	8.351
308.38	8.346
308.59	8.358
308.80	8.338
309.01	8.381
309.22	8.434
309.43	8.434
309.64	8.531
309.85	8.580
310.06	8.684
310.27	8.723
310.48	8.766
310.70	8.797
310.91	8.861
311.12	8.893
311.33	8.956
311.54	8.944
311.75	9.010
311.96	9.043
312.17	9.121
312.38	9.157
312.59	9.185
312.80	9.220
313.01	9.222
313.22	9.269
313.43	9.347
313.64	9.359
313.85	9.435
314.06	9.505
314.27	9.570
314.48	9.618
314.69	9.688
314.90	9.757
315.11	9.856
315.32	9.956
315.53	9.929
315.74	9.987
315.95	10.079
316.16	10.244
316.37	10.284
316.58	10.325
316.79	10.293
317.00	10.358
317.21	10.391
317.42	10.427
317.63	10.531
317.84	10.615
318.05	10.687
318.26	10.746
318.47	10.746
318.68	10.801
318.89	10.872
319.10	10.954
319.31	10.927
319.52	11.018
319.73	11.124
319.94	11.151
320.15	11.243
320.36	11.339
320.57	11.413
320.78	11.506
320.99	11.513
321.20	11.626
321.41	11.705
321.62	11.775
321.83	11.846
322.04	11.882
322.25	12.017
322.46	12.077
322.67	12.189
322.88	12.235
323.09	12.241
323.30	12.391
323.51	12.354
323.72	12.481
323.93	12.521
324.14	12.614
324.35	12.724
324.56	12.719
324.77	12.749
324.98	12.713
325.19	12.797
325.40	12.871
325.61	12.956
325.82	13.085
326.03	13.111
326.24	13.199
326.45	13.250
326.65	13.217
326.86	13.287
327.07	13.388
327.28	13.451
327.49	13.489
327.70	13.541
327.91	13.588
328.12	13.674
328.33	13.634
328.54	13.702
328.75	13.739
328.96	13.849
329.17	13.858
329.38	13.900
329.59	13.988
329.80	14.101
330.01	14.180
330.22	14.252
330.43	14.296
330.64	14.402
330.85	14.464
331.05	14.469
331.26	14.559
331.47	14.658
331.68	14.716
331.89	14.821
332.10	14.875
332.31	14.938
332.52	14.967
332.73	14.969
332.94	15.072
333.15	15.135
333.36	15.288
333.57	15.283
333.78	15.335
333.99	15.405
334.19	15.471
334.40	15.523
334.61	15.646
334.82	15.720
335.03	15.767
335.24	15.828
335.45	15.920
335.66	15.973
335.87	16.079
336.08	16.154
336.29	16.242
336.50	16.254
336.71	16.350
336.91	16.351
337.12	16.369
337.33	16.505
337.54	16.564
337.75	16.570
337.96	16.593
338.17	16.681
338.38	16.718
338.59	16.814
338.80	16.824
339.01	16.826
339.21	16.879
339.42	17.023
339.63	17.035
339.84	17.115
340.05	17.207
340.26	17.251
340.47	17.267
340.68	17.329
340.89	17.298
341.10	17.332
341.30	17.417
341.51	17.495
341.72	17.525
341.93	17.616
342.14	17.590
342.35	17.650
342.56	17.758
342.77	17.850
342.98	17.888
343.18	17.976
343.39	18.078
343.60	18.107
343.81	18.158
344.02	18.233
344.23	18.302
344.44	18.448
344.65	18.532
344.85	18.518
345.06	18.570
345.27	18.671
345.48	18.682
345.69	18.799
345.90	18.915
346.11	19.016
346.32	19.020
346.52	19.004
346.73	18.984
346.94	18.971
347.15	19.060
347.36	19.066
347.57	19.114
347.78	19.226
347.98	19.282
348.19	19.270
348.40	19.267
348.61	19.363
348.82	19.453
349.03	19.568
349.24	19.629
349.44	19.701
349.65	19.768
349.86	19.787
350.07	19.834
350.28	19.851
350.49	19.876
350.70	19.934
350.90	19.930
351.11	19.984
351.32	20.018
351.53	20.152
351.74	20.125
351.95	20.163
352.15	20.229
352.36	20.259
352.57	20.277
352.78	20.428
352.99	20.470
353.20	20.565
353.40	20.625
353.61	20.647
353.82	20.623
354.03	20.770
354.24	20.827
354.45	20.918
354.65	21.063
354.86	21.137
355.07	21.113
355.28	21.259
355.49	21.340
355.70	21.402
355.90	21.450
356.11	21.588
356.32	21.644
356.53	21.731
356.74	21.804
356.94	21.778
357.15	21.880
357.36	21.965
357.57	21.974
357.78	22.017
357.99	22.052
358.19	22.128
358.40	22.131
358.61	22.160
358.82	22.236
359.03	22.252
359.23	22.346
359.44	22.371
359.65	22.407
359.86	22.464
360.07	22.543
360.27	22.617
360.48	22.727
360.69	22.819
360.90	22.867
361.11	22.991
361.31	23.073
361.52	23.124
361.73	23.189
361.94	23.312
362.15	23.366
362.35	23.399
362.56	23.447
362.77	23.475
362.98	23.508
363.18	23.543
363.39	23.496
363.60	23.535
363.81	23.556
364.02	23.602
364.22	23.648
364.43	23.668
364.64	23.688
364.85	23.723
365.05	23.807
365.26	23.836
365.47	23.932
365.68	24.013
365.89	24.067
366.09	24.129
366.30	24.161
366.51	24.189
366.72	24.246
366.92	24.354
367.13	24.452
367.34	24.471
367.55	24.529
367.75	24.570
367.96	24.617
368.17	24.633
368.38	24.705
368.58	24.776
368.79	24.765
369.00	24.845
369.21	24.864
369.41	24.896
369.62	24.907
369.83	24.976
370.04	25.035
370.24	25.091
370.45	25.220
370.66	25.279
370.87	25.251
371.07	25.289
371.28	25.342
371.49	25.396
371.70	25.446
371.90	25.517
372.11	25.502
372.32	25.545
372.53	25.605
372.73	25.596
372.94	25.580
373.15	25.712
373.36	25.823
373.56	25.894
373.77	25.946
373.98	26.001
374.19	26.061
374.39	26.158
374.60	26.206
374.81	26.220
375.01	26.243
375.22	26.333
375.43	26.387
375.64	26.414
375.84	26.450
376.05	26.492
376.26	26.559
376.46	26.586
376.67	26.629
376.88	26.686
377.09	26.746
377.29	26.819
377.50	26.854
377.71	26.887
377.91	26.961
378.12	27.014
378.33	27.112
378.54	27.140
378.74	27.220
378.95	27.297
379.16	27.379
379.36	27.455
379.57	27.542
379.78	27.606
379.99	27.684
380.19	27.703
380.40	27.683
380.61	27.706
380.81	27.766
381.02	27.813
381.23	27.853
381.43	27.910
381.64	27.981
381.85	28.020
382.05	28.095
382.26	28.184
382.47	28.254
382.67	28.365
382.88	28.391
383.09	28.442
383.30	28.496
383.50	28.599
383.71	28.615
383.92	28.647
384.12	28.669
384.33	28.695
384.54	28.731
384.74	28.809
384.95	28.862
385.16	28.904
385.36	28.944
385.57	29.003
385.78	29.015
385.98	29.081
386.19	29.124
386.40	29.223
386.60	29.268
386.81	29.316
387.02	29.338
387.22	29.394
387.43	29.474
387.64	29.554
387.84	29.556
388.05	29.608
388.26	29.633
388.46	29.639
388.67	29.691
388.88	29.777
389.08	29.793
389.29	29.889
389.49	29.914
389.70	29.972
389.91	30.029
390.11	30.104
390.32	30.188
390.53	30.285
390.73	30.385
390.94	30.418
391.15	30.453
391.35	30.537
391.56	30.590
391.77	30.668
391.97	30.722
392.18	30.785
392.38	30.879
392.59	30.938
392.80	30.991
393.00	31.041
393.21	31.070
393.42	31.151
393.62	31.208
393.83	31.232
394.04	31.253
394.24	31.278
394.45	31.288
394.65	31.346
394.86	31.376
395.07	31.436
395.27	31.504
395.48	31.588
395.68	31.599
395.89	31.630
396.10	31.688
396.30	31.739
396.51	31.816
396.72	31.906
396.92	31.902
397.13	31.970
397.33	32.014
397.54	32.044
397.75	32.098
397.95	32.140
398.16	32.191
398.36	32.258
398.57	32.343
398.78	32.401
398.98	32.470
399.19	32.526
399.39	32.569
399.60	32.589
399.81	32.656
400.01	32.722
400.22	32.812
400.42	32.876
400.63	32.926
400.84	32.990
401.04	33.041
401.25	33.054
401.45	33.126
401.66	33.140
401.86	33.210
402.07	33.277
402.28	33.346
402.48	33.400
402.69	33.471
402.89	33.525
403.10	33.593
403.31	33.656
403.51	33.716
403.72	33.803
403.92	33.889
404.13	33.924
404.33	33.926
404.54	33.953
404.75	33.983
404.95	34.050
405.16	34.081
405.36	34.116
405.57	34.202
405.77	34.249
405.98	34.242
406.18	34.267
406.39	34.312
406.60	34.368
406.80	34.376
407.01	34.479
407.21	34.451
407.42	34.522
407.62	34.566
407.83	34.573
408.03	34.641
408.24	34.726
408.45	34.742
408.65	34.828
408.86	34.902
409.06	34.975
409.27	34.999
409.47	35.094
409.68	35.104
409.88	35.148
410.09	35.155
410.29	35.213
410.50	35.248
410.71	35.354
410.91	35.369
411.12	35.399
411.32	35.506
411.53	35.536
411.73	35.568
411.94	35.618
412.14	35.666
412.35	35.715
412.55	35.706
412.76	35.730
412.96	35.748
413.17	35.801
413.37	35.881
413.58	35.906
413.78	35.929
413.99	36.002
414.19	36.090
414.40	36.161
414.61	36.230
414.81	36.311
415.02	36.376
415.22	36.423
415.43	36.504
415.63	36.518
415.84	36.567
416.04	36.647
416.25	36.680
416.45	36.709
416.66	36.741
416.86	36.783
417.07	36.779
417.27	36.813
417.48	36.855
417.68	36.874
417.89	36.914
418.09	36.939
418.30	36.968
418.50	36.990
418.71	37.042
418.91	37.093
419.12	37.166
419.32	37.265
419.53	37.337
419.73	37.392
419.94	37.440
420.14	37.468
420.34	37.479
420.55	37.503
420.75	37.553
420.96	37.546
421.16	37.550
421.37	37.546
421.57	37.576
421.78	37.592
421.98	37.631
422.19	37.660
422.39	37.728
422.60	37.817
422.80	37.886
423.01	37.920
423.21	37.997
423.42	38.037
423.62	38.057
423.83	38.043
424.03	38.060
424.23	38.067
424.44	38.079
424.64	38.089
424.85	38.113
425.05	38.128
425.26	38.175
425.46	38.225
425.67	38.275
425.87	38.321
426.08	38.413
426.28	38.472
426.48	38.528
426.69	38.602
426.89	38.663
427.10	38.701
427.30	38.756
427.51	38.775
427.71	38.792
427.92	38.796
428.12	38.869
428.32	38.875
428.53	38.905
428.73	38.935
428.94	38.954
429.14	38.963
429.35	38.968
429.55	39.004
429.76	39.053
429.96	39.073
430.16	39.121
430.37	39.153
430.57	39.181
430.78	39.221
430.98	39.271
431.19	39.321
431.39	39.355
431.59	39.402
431.80	39.406
432.00	39.383
432.21	39.389
432.41	39.413
432.61	39.409
432.82	39.399
433.02	39.416
433.23	39.411
433.43	39.432
433.64	39.483
433.84	39.520
434.04	39.590
434.25	39.678
434.45	39.750
434.66	39.804
434.86	39.886
435.06	39.984
435.27	40.055
435.47	40.131
435.68	40.143
435.88	40.162
436.08	40.156
436.29	40.137
436.49	40.138
436.70	40.139
436.90	40.140
437.10	40.141
437.31	40.147
437.51	40.155
437.71	40.190
437.92	40.251
438.12	40.270
438.33	40.311
438.53	40.334
438.73	40.347
438.94	40.362
439.14	40.397
439.35	40.426
439.55	40.472
439.75	40.503
439.96	40.527
440.16	40.548
440.36	40.584
440.57	40.601
440.77	40.655
440.97	40.701
441.18	40.771
441.38	40.800
441.59	40.830
441.79	40.845
441.99	40.902
442.20	40.935
442.40	40.991
442.60	41.041
442.81	41.102
443.01	41.139
443.21	41.175
443.42	41.176
443.62	41.226
443.83	41.295
444.03	41.334
444.23	41.332
444.44	41.355
444.64	41.374
444.84	41.391
445.05	41.371
445.25	41.319
445.45	41.299
445.66	41.291
445.86	41.297
446.06	41.295
446.27	41.295
446.47	41.315
446.67	41.331
446.88	41.335
447.08	41.334
447.28	41.360
447.49	41.449
447.69	41.504
447.89	41.567
448.10	41.609
448.30	41.651
448.50	41.680
448.71	41.713
448.91	41.705
449.11	41.703
449.32	41.765
449.52	41.832
449.72	41.835
449.93	41.879
450.13	41.892
450.33	41.909
450.53	41.911
450.74	41.987
450.94	42.007
451.14	42.089
451.35	42.130
451.55	42.094
451.75	42.080
451.96	42.112
452.16	42.098
452.36	42.118
452.57	42.118
452.77	42.155
452.97	42.133
453.17	42.122
453.38	42.120
453.58	42.134
453.78	42.163
453.99	42.196
454.19	42.216
454.39	42.258
454.59	42.271
454.80	42.324
455.00	42.340
455.20	42.395
455.41	42.450
455.61	42.451
455.81	42.499
456.01	42.527
456.22	42.537
456.42	42.575
456.62	42.609
456.83	42.678
457.03	42.686
457.23	42.699
457.43	42.711
457.64	42.716
457.84	42.757
458.04	42.795
458.25	42.838
458.45	42.914
458.65	42.920
458.85	42.925
459.06	42.863
459.26	42.850
459.46	42.833
459.66	42.803
459.87	42.806
460.07	42.797
460.27	42.803
460.47	42.808
460.68	42.795
460.88	42.791
461.08	42.800
461.28	42.885
461.49	42.922
461.69	42.993
461.89	43.045
462.09	43.094
462.30	43.133
462.50	43.147
462.70	43.173
462.90	43.191
463.11	43.226
463.31	43.234
463.51	43.232
463.71	43.269
463.92	43.270
464.12	43.303
464.32	43.330
464.52	43.350
464.72	43.358
464.93	43.369
465.13	43.402
465.33	43.401
465.53	43.407
465.74	43.397
465.94	43.389
466.14	43.366
466.34	43.330
466.54	43.293
466.75	43.274
466.95	43.289
467.15	43.295
467.35	43.265
467.56	43.277
467.76	43.318
467.96	43.341
468.16	43.376
468.36	43.433
468.57	43.510
468.77	43.554
468.97	43.587
469.17	43.603
469.37	43.629
469.58	43.656
469.78	43.708
469.98	43.707
470.18	43.746
470.38	43.776
470.59	43.792
470.79	43.830
470.99	43.868
471.19	43.905
471.39	43.953
471.60	43.992
471.80	44.032
472.00	44.029
472.20	44.063
472.40	44.042
472.61	44.028
472.81	44.035
473.01	44.007
473.21	44.022
473.41	44.038
473.61	44.005
473.82	44.016
474.02	44.022
474.22	44.050
474.42	44.096
474.62	44.165
474.82	44.236
475.03	44.306
475.23	44.347
475.43	44.380
475.63	44.425
475.83	44.485
476.03	44.490
476.24	44.518
476.44	44.527
476.64	44.517
476.84	44.520
477.04	44.507
477.24	44.486
477.45	44.518
477.65	44.507
477.85	44.519
478.05	44.525
478.25	44.561
478.45	44.571
478.65	44.600
478.86	44.623
479.06	44.635
479.26	44.658
479.46	44.677
479.66	44.686
479.86	44.727
480.06	44.729
480.27	44.730
480.47	44.741
480.67	44.770
480.87	44.769
481.07	44.789
481.27	44.836
481.47	44.873
481.68	44.943
481.88	45.057
482.08	45.210
482.28	45.424
482.48	45.617
482.68	45.774
482.88	46.067
483.08	46.659
483.29	46.933
483.49	46.721
483.69	46.505
483.89	46.380
484.09	46.300
484.29	46.220
484.49	46.146
484.69	46.092
484.89	46.028
485.10	45.836
485.30	45.287
485.50	44.885
485.70	44.995
485.90	45.224
486.10	45.390
486.30	45.488
486.50	45.577
486.70	45.640
486.90	45.675
487.11	45.706
487.31	45.712
487.51	45.690
487.71	45.628
487.91	45.578
488.11	45.526
488.31	45.496
488.51	45.474
488.71	45.463
488.91	45.458
489.11	45.461
489.32	45.476
489.52	45.503
489.72	45.581
489.92	45.741
490.12	45.885
490.32	46.018
490.52	46.046
490.72	46.035
490.92	46.001
491.12	45.923
491.32	45.882
491.52	45.832
491.72	45.810
491.92	45.772
492.13	45.700
492.33	45.645
492.53	45.591
492.73	45.571
492.93	45.575
493.13	45.608
493.33	45.675
493.53	45.703
493.73	45.756
493.93	45.785
494.13	45.820
494.33	45.840
494.53	45.866
494.73	45.888
494.93	45.921
495.13	45.947
495.33	45.948
495.53	45.962
495.73	46.011
495.94	46.036
496.14	46.078
496.34	46.092
496.54	46.119
496.74	46.148
496.94	46.183
497.14	46.187
497.34	46.192
497.54	46.204
497.74	46.221
497.94	46.209
498.14	46.197
498.34	46.181
498.54	46.184
498.74	46.175
498.94	46.174
499.14	46.156
499.34	46.169
499.54	46.171
499.74	46.186
499.94	46.201
500.14	46.215
500.34	46.255
500.54	46.263
500.74	46.297
500.94	46.336
501.14	46.339
501.34	46.361
501.54	46.377
501.74	46.390
501.94	46.391
502.14	46.399
502.34	46.439
502.54	46.438
502.74	46.453
502.94	46.442
503.14	46.459
503.34	46.467
503.54	46.487
503.74	46.471
503.94	46.491
504.14	46.496
504.34	46.501
504.54	46.489
504.74	46.511
504.94	46.525
505.14	46.546
505.34	46.531
505.54	46.566
505.74	46.570
505.94	46.595
506.14	46.631
506.34	46.661
506.54	46.673
506.74	46.720
506.94	46.760
507.14	46.785
507.34	46.795
507.54	46.777
507.74	46.756
507.94	46.775
508.14	46.792
508.34	46.783
508.54	46.778
508.74	46.774
508.94	46.760
509.13	46.740
509.33	46.753
509.53	46.776
509.73	46.817
509.93	46.861
510.13	46.861
510.33	46.878
510.53	46.899
510.73	46.950
510.93	46.982
511.13	47.012
511.33	47.041
511.53	47.028
511.73	47.023
511.93	47.045
512.13	47.028
512.33	47.051
512.53	47.073
512.73	47.070
512.92	47.066
513.12	47.080
513.32	47.086
513.52	47.080
513.72	47.116
513.92	47.142
514.12	47.150
514.32	47.163
514.52	47.171
514.72	47.162
514.92	47.177
515.12	47.196
515.32	47.198
515.52	47.183
515.71	47.217
515.91	47.223
516.11	47.216
516.31	47.222
516.51	47.228
516.71	47.263
516.91	47.313
517.11	47.356
517.31	47.375
517.51	47.370
517.71	47.381
517.90	47.359
518.10	47.336
518.30	47.341
518.50	47.329
518.70	47.325
518.90	47.302
519.10	47.274
519.30	47.260
519.50	47.254
519.69	47.261
519.89	47.274
520.09	47.321
520.29	47.347
520.49	47.377
520.69	47.415
520.89	47.461
521.09	47.478
521.29	47.505
521.48	47.518
521.68	47.508
521.88	47.536
522.08	47.538
522.28	47.521
522.48	47.522
522.68	47.524
522.88	47.555
523.07	47.575
523.27	47.604
523.47	47.620
523.67	47.634
523.87	47.692
524.07	47.737
524.27	47.784
524.47	47.803
524.66	47.844
524.86	47.835
525.06	47.805
525.26	47.798
525.46	47.788
525.66	47.806
525.85	47.808
526.05	47.792
526.25	47.808
526.45	47.864
526.65	47.956
526.85	48.078
527.05	48.265
527.24	48.455
527.44	48.538
527.64	48.641
527.84	48.674
528.04	48.666
528.24	48.596
528.43	48.512
528.63	48.430
528.83	48.364
529.03	48.286
529.23	48.209
529.43	48.115
529.62	48.045
529.82	47.956
530.02	47.873
530.22	47.823
530.42	47.832
530.62	47.878
530.81	47.934
531.01	47.967
531.21	48.005
531.41	48.040
531.61	48.135
531.80	48.244
532.00	48.302
532.20	48.325
532.40	48.340
532.60	48.355
532.79	48.322
532.99	48.278
533.19	48.242
533.39	48.222
533.59	48.198
533.78	48.148
533.98	48.107
534.18	48.065
534.38	48.055
534.58	48.045
534.77	48.072
534.97	48.157
535.17	48.267
535.37	48.368
535.57	48.403
535.76	48.407
535.96	48.382
536.16	48.319
536.36	48.312
536.56	48.284
536.75	48.290
536.95	48.244
537.15	48.212
537.35	48.166
537.54	48.137
537.74	48.149
537.94	48.187
538.14	48.235
538.34	48.299
538.53	48.345
538.73	48.399
538.93	48.426
539.13	48.512
539.32	48.595
539.52	48.678
539.72	48.785
539.92	48.870
540.11	48.867
540.31	48.853
540.51	48.806
540.71	48.723
540.90	48.635
541.10	48.570
541.30	48.517
541.50	48.476
541.69	48.436
541.89	48.390
542.09	48.344
542.29	48.323
542.48	48.295
542.68	48.284
542.88	48.302
543.08	48.361
543.27	48.410
543.47	48.467
543.67	48.471
543.87	48.491
544.06	48.481
544.26	48.486
544.46	48.491
544.65	48.508
544.85	48.548
545.05	48.583
545.25	48.602
545.44	48.614
545.64	48.623
545.84	48.649
546.04	48.623
546.23	48.594
546.43	48.560
546.63	48.523
546.82	48.502
547.02	48.497
547.22	48.501
547.42	48.472
547.61	48.464
547.81	48.441
548.01	48.406
548.20	48.413
548.40	48.443
548.60	48.474
548.79	48.511
548.99	48.532
549.19	48.506
549.39	48.482
549.58	48.518
549.78	48.522
549.98	48.513
550.17	48.536
550.37	48.541
550.57	48.566
550.76	48.538
550.96	48.569
551.16	48.601
551.35	48.612
551.55	48.640
551.75	48.641
551.94	48.650
552.14	48.652
552.34	48.614
552.53	48.607
552.73	48.596
552.93	48.633
553.13	48.597
553.32	48.591
553.52	48.625
553.72	48.621
553.91	48.649
554.11	48.644
554.31	48.661
554.50	48.702
554.70	48.710
554.89	48.692
555.09	48.691
555.29	48.734
555.48	48.732
555.68	48.731
555.88	48.737
556.07	48.705
556.27	48.738
556.47	48.759
556.66	48.774
556.86	48.804
557.06	48.820
557.25	48.845
557.45	48.849
557.65	48.860
557.84	48.865
558.04	48.853
558.23	48.870
558.43	48.866
558.63	48.832
558.82	48.847
559.02	48.846
559.22	48.843
559.41	48.841
559.61	48.847
559.81	48.850
560.00	48.853
560.20	48.871
560.39	48.885
560.59	48.905
560.79	48.944
560.98	48.923
561.18	48.926
561.37	48.965
561.57	48.971
561.77	48.951
561.96	48.932
562.16	48.937
562.36	48.950
562.55	48.953
562.75	48.945
562.94	48.944
563.14	48.989
563.34	48.993
563.53	48.958
563.73	48.953
563.92	48.977
564.12	49.019
564.32	49.045
564.51	49.072
564.71	49.082
564.90	49.112
565.10	49.120
565.29	49.140
565.49	49.123
565.69	49.153
565.88	49.111
566.08	49.120
566.27	49.089
566.47	49.064
566.67	49.060
566.86	49.076
567.06	49.061
567.25	49.051
567.45	49.038
567.64	49.053
567.84	49.044
568.04	49.101
568.23	49.100
568.43	49.142
568.62	49.182
568.82	49.188
569.01	49.168
569.21	49.166
569.41	49.197
569.60	49.203
569.80	49.271
569.99	49.280
570.19	49.314
570.38	49.342
570.58	49.356
570.77	49.352
570.97	49.357
571.17	49.369
571.36	49.355
571.56	49.329
571.75	49.293
571.95	49.249
572.14	49.278
572.34	49.262
572.53	49.252
572.73	49.263
572.92	49.256
573.12	49.231
573.31	49.226
573.51	49.244
573.70	49.276
573.90	49.312
574.10	49.322
574.29	49.328
574.49	49.323
574.68	49.306
574.88	49.286
575.07	49.284
575.27	49.301
575.46	49.309
575.66	49.329
575.85	49.335
576.05	49.346
576.24	49.332
576.44	49.320
576.63	49.330
576.83	49.353
577.02	49.365
577.22	49.364
577.41	49.365
577.61	49.367
577.80	49.374
578.00	49.345
578.19	49.328
578.39	49.334
578.58	49.309
578.78	49.299
578.97	49.308
579.17	49.298
579.36	49.304
579.56	49.319
579.75	49.323
579.95	49.290
580.14	49.309
580.34	49.302
580.53	49.310
580.73	49.312
580.92	49.311
581.12	49.309
581.31	49.335
581.51	49.353
581.70	49.350
581.89	49.353
582.09	49.377
582.28	49.381
582.48	49.389
582.67	49.429
582.87	49.454
583.06	49.473
583.26	49.454
583.45	49.435
583.65	49.446
583.84	49.454
584.04	49.435
584.23	49.449
584.43	49.429
584.62	49.423
584.81	49.396
585.01	49.382
585.20	49.360
585.40	49.376
585.59	49.391
585.79	49.370
585.98	49.340
586.18	49.344
586.37	49.312
586.56	49.326
586.76	49.320
586.95	49.330
587.15	49.381
587.34	49.405
587.54	49.402
587.73	49.400
587.92	49.439
588.12	49.464
588.31	49.494
588.51	49.515
588.70	49.511
588.90	49.549
589.09	49.538
589.28	49.499
589.48	49.502
589.67	49.504
589.87	49.501
590.06	49.488
590.25	49.487
590.45	49.498
590.64	49.476
590.84	49.488
591.03	49.489
591.23	49.510
591.42	49.514
591.61	49.505
591.81	49.514
592.00	49.535
592.20	49.550
592.39	49.553
592.58	49.519
592.78	49.519
592.97	49.509
593.17	49.489
593.36	49.470
593.55	49.480
593.75	49.514
593.94	49.532
594.13	49.524
594.33	49.527
594.52	49.550
594.72	49.593
594.91	49.645
595.10	49.696
595.30	49.727
595.49	49.789
595.68	49.870
595.88	49.889
596.07	49.890
596.27	49.856
596.46	49.811
596.65	49.784
596.85	49.742
597.04	49.713
597.23	49.672
597.43	49.656
597.62	49.635
597.81	49.588
598.01	49.579
598.20	49.582
598.40	49.597
598.59	49.632
598.78	49.644
598.98	49.698
599.17	49.735
599.36	49.735
599.56	49.771
599.75	49.750
599.94	49.726
600.14	49.727
600.33	49.735
600.52	49.745
600.72	49.759
600.91	49.792
601.10	49.769
601.30	49.771
601.49	49.818
601.68	49.800
601.88	49.837
602.07	49.877
602.26	49.868
602.46	49.855
602.65	49.871
602.84	49.903
603.04	49.924
603.23	49.942
603.42	49.969
603.62	49.942
603.81	49.920
604.00	49.916
604.20	49.870
604.39	49.836
604.58	49.820
604.77	49.819
604.97	49.770
605.16	49.741
605.35	49.730
605.55	49.705
605.74	49.733
605.93	49.770
606.13	49.762
606.32	49.785
606.51	49.836
606.70	49.861
606.90	49.898
607.09	49.930
607.28	49.961
607.48	49.983
607.67	50.020
607.86	50.062
608.05	50.069
608.25	50.085
608.44	50.109
608.63	50.105
608.83	50.098
609.02	50.044
609.21	50.029
609.40	49.985
609.60	49.951
609.79	49.896
609.98	49.840
610.17	49.807
610.37	49.773
610.56	49.739
610.75	49.742
610.95	49.743
611.14	49.771
611.33	49.755
611.52	49.777
611.72	49.804
611.91	49.832
612.10	49.838
612.29	49.864
612.49	49.868
612.68	49.880
612.87	49.840
613.06	49.828
613.26	49.821
613.45	49.820
613.64	49.794
613.83	49.768
614.03	49.763
614.22	49.742
614.41	49.728
614.60	49.738
614.79	49.749
614.99	49.795
615.18	49.798
615.37	49.833
615.56	49.838
615.76	49.872
615.95	49.907
616.14	49.883
616.33	49.941
616.53	49.947
616.72	49.974
616.91	49.968
617.10	49.921
617.29	49.915
617.49	49.875
617.68	49.884
617.87	49.879
618.06	49.858
618.25	49.859
618.45	49.835
618.64	49.812
618.83	49.792
619.02	49.777
619.21	49.825
619.41	49.839
619.60	49.864
619.79	49.860
619.98	49.872
620.17	49.878
620.37	49.876
620.56	49.870
620.75	49.887
620.94	49.912
621.13	49.916
621.33	49.886
621.52	49.889
621.71	49.882
621.90	49.934
622.09	49.914
622.28	49.917
622.48	49.932
622.67	49.938
622.86	49.936
623.05	49.947
623.24	49.966
623.44	49.985
623.63	49.991
623.82	49.982
624.01	49.956
624.20	49.999
624.39	50.034
624.59	50.080
624.78	50.119
624.97	50.172
625.16	50.185
625.35	50.203
625.54	50.219
625.73	50.223
625.93	50.243
626.12	50.244
626.31	50.232
626.50	50.208
626.69	50.178
626.88	50.148
627.07	50.129
627.27	50.114
627.46	50.102
627.65	50.095
627.84	50.107
628.03	50.116
628.22	50.111
628.41	50.123
628.61	50.154
628.80	50.169
628.99	50.187
629.18	50.190
629.37	50.176
629.56	50.196
629.75	50.186
629.94	50.177
630.14	50.170
630.33	50.177
630.52	50.170
630.71	50.163
630.90	50.152
631.09	50.155
631.28	50.161
631.47	50.156
631.66	50.144
631.86	50.150
632.05	50.154
632.24	50.133
632.43	50.126
632.62	50.138
632.81	50.117
633.00	50.152
633.19	50.151
633.38	50.131
633.57	50.179
633.77	50.154
633.96	50.156
634.15	50.145
634.34	50.182
634.53	50.210
634.72	50.169
634.91	50.176
635.10	50.156
635.29	50.161
635.48	50.194
635.67	50.172
635.86	50.228
636.05	50.253
636.25	50.239
636.44	50.253
636.63	50.229
636.82	50.271
637.01	50.276
637.20	50.293
637.39	50.305
637.58	50.294
637.77	50.271
637.96	50.274
638.15	50.261
638.34	50.299
638.53	50.288
638.72	50.297
638.91	50.286
639.10	50.287
639.30	50.304
639.49	50.293
639.68	50.283
639.87	50.294
640.06	50.226
640.25	50.237
640.44	50.230
640.63	50.203
640.82	50.201
641.01	50.219
641.20	50.208
641.39	50.183
641.58	50.185
641.77	50.179
641.96	50.197
642.15	50.259
642.34	50.240
642.53	50.228
642.72	50.217
642.91	50.211
643.10	50.197
643.29	50.230
643.48	50.213
643.67	50.183
643.86	50.233
644.05	50.241
644.24	50.235
644.43	50.275
644.62	50.271
644.81	50.281
645.00	50.320
645.19	50.328
645.38	50.328
645.57	50.326
645.76	50.339
645.95	50.319
646.14	50.329
646.33	50.313
646.52	50.289
646.71	50.310
646.90	50.344
647.09	50.351
647.28	50.333
647.47	50.359
647.66	50.395
647.85	50.424
648.04	50.438
648.23	50.417
648.42	50.425
648.61	50.446
648.80	50.402
648.99	50.373
649.18	50.350
649.37	50.395
649.56	50.331
649.75	50.283
649.94	50.260
650.13	50.233
650.32	50.221
650.51	50.222
650.70	50.177
650.89	50.249
651.08	50.252
651.27	50.270
651.46	50.249
651.65	50.277
651.83	50.325
652.02	50.351
652.21	50.332
652.40	50.360
652.59	50.384
652.78	50.413
652.97	50.378
653.16	50.368
653.35	50.357
653.54	50.366
653.73	50.371
653.92	50.339
654.11	50.327
654.30	50.392
654.49	50.440
654.68	50.414
654.86	50.465
655.05	50.496
655.24	50.507
655.43	50.495
655.62	50.519
655.81	50.547
656.00	50.519
656.19	50.563
656.38	50.563
656.57	50.503
656.76	50.511
656.95	50.529
657.13	50.540
657.32	50.587
657.51	50.636
657.70	50.686
657.89	50.713
658.08	50.817
658.27	50.831
658.46	50.780
658.65	50.809
658.84	50.803
659.02	50.742
659.21	50.740
659.40	50.756
659.59	50.771
659.78	50.695
659.97	50.673
660.16	50.648
660.35	50.614
660.54	50.651
660.72	50.637
660.91	50.649
661.10	50.659
661.29	50.655
661.48	50.600
661.67	50.584
661.86	50.637
662.05	50.618
662.23	50.620
662.42	50.631
662.61	50.658
662.80	50.630
662.99	50.670
663.18	50.703
663.37	50.688
663.56	50.728
663.74	50.709
663.93	50.668
664.12	50.640
664.31	50.638
664.50	50.614
664.69	50.580
664.87	50.618
665.06	50.584
665.25	50.566
665.44	50.608
665.63	50.540
665.82	50.495
666.01	50.504
666.19	50.547
666.38	50.545
666.57	50.549
666.76	50.543
666.95	50.520
667.14	50.531
667.32	50.544
667.51	50.485
667.70	50.522
667.89	50.596
668.08	50.601
668.26	50.621
668.45	50.608
668.64	50.619
668.83	50.626
669.02	50.665
669.21	50.651
669.39	50.627
669.58	50.643
669.77	50.676
669.96	50.661
670.15	50.680
670.33	50.641
670.52	50.646
670.71	50.605
670.90	50.596
671.09	50.531
671.27	50.534
671.46	50.552
671.65	50.557
671.84	50.505
672.03	50.522
672.21	50.526
672.40	50.531
672.59	50.508
672.78	50.561
672.96	50.558
673.15	50.589
673.34	50.573
673.53	50.576
673.72	50.581
673.90	50.614
674.09	50.589
674.28	50.610
674.47	50.624
674.65	50.652
674.84	50.613
675.03	50.642
675.22	50.680
675.41	50.703
675.59	50.696
675.78	50.725
675.97	50.711
676.16	50.735
676.34	50.729
676.53	50.748
676.72	50.748
676.91	50.793
677.09	50.812
677.28	50.840
677.47	50.867
677.66	50.864
677.84	50.812
678.03	50.839
678.22	50.838
678.41	50.842
678.59	50.822
678.78	50.841
678.97	50.873
679.15	50.850
679.34	50.805
679.53	50.773
679.72	50.812
679.90	50.831
680.09	50.827
680.28	50.807
680.47	50.775
680.65	50.770
680.84	50.763
681.03	50.742
681.21	50.740
681.40	50.737
681.59	50.748
681.78	50.718
681.96	50.734
682.15	50.727
682.34	50.756
682.52	50.789
682.71	50.782
682.90	50.739
683.08	50.696
683.27	50.715
683.46	50.714
683.65	50.728
683.83	50.701
684.02	50.661
684.21	50.622
684.39	50.584
684.58	50.541
684.77	50.543
684.95	50.531
685.14	50.517
685.33	50.496
685.51	50.491
685.70	50.436
685.89	50.438
686.07	50.458
686.26	50.504
686.45	50.533
686.63	50.503
686.82	50.508
687.01	50.568
687.20	50.622
687.38	50.601
687.57	50.602
687.75	50.645
687.94	50.687
688.13	50.716
688.31	50.730
688.50	50.749
688.69	50.785
688.87	50.799
689.06	50.792
689.25	50.810
689.43	50.818
689.62	50.870
689.81	50.872
689.99	50.895
690.18	50.862
690.37	50.861
690.55	50.831
690.74	50.885
690.93	50.903
691.11	50.913
691.30	50.914
691.48	50.968
691.67	50.906
691.86	50.931
692.04	50.895
692.23	50.920
692.42	50.918
692.60	50.944
692.79	50.939
692.97	50.963
693.16	50.957
693.35	50.951
693.53	50.955
693.72	50.990
693.90	50.990
694.09	51.026
694.28	51.079
694.46	51.099
694.65	51.088
694.83	51.110
695.02	51.095
695.21	51.081
695.39	51.106
695.58	51.099
695.76	51.129
695.95	51.142
696.14	51.125
696.32	51.091
696.51	51.065
696.69	51.116
696.88	51.169
697.07	51.250
697.25	51.332
697.44	51.384
697.62	51.396
697.81	51.342
697.99	51.305
698.18	51.297
698.37	51.247
698.55	51.265
698.74	51.226
698.92	51.172
699.11	51.124
699.29	51.112
699.48	51.065
699.67	51.077
699.85	51.114
700.04	51.135
700.22	51.168
700.41	51.218
700.59	51.180
700.78	51.207
700.96	51.185
701.15	51.177
701.34	51.132
701.52	51.113
701.71	51.047
701.89	51.019
702.08	50.997
702.26	50.963
702.45	50.969
702.63	51.011
702.82	50.984
703.00	51.044
703.19	51.036
703.38	51.087
703.56	51.037
703.75	51.082
703.93	51.094
704.12	51.127
704.30	51.166
704.49	51.163
704.67	51.155
704.86	51.175
705.04	51.117
705.23	51.138
705.41	51.117
705.60	51.198
705.78	51.162
705.97	51.131
706.15	51.113
706.34	51.082
706.52	51.104
706.71	51.128
706.89	51.119
707.08	51.140
707.26	51.121
707.45	51.066
707.63	51.066
707.82	51.064
708.00	51.088
708.19	51.080
708.37	51.063
708.56	51.003
708.74	50.982
708.93	50.974
709.11	50.927
709.30	50.968
709.48	51.014
709.67	51.014
709.85	50.991
710.04	51.009
710.22	50.996
710.41	50.957
710.59	51.011
710.77	51.035
710.96	50.998
711.14	51.052
711.33	50.996
711.51	50.985
711.70	50.929
711.88	50.940
712.07	50.922
712.25	50.946
712.44	50.979
712.62	50.955
712.80	50.918
712.99	50.986
713.17	50.974
713.36	50.958
713.54	50.960
713.73	51.007
713.91	51.065
714.10	51.045
714.28	51.073
714.46	51.144
714.65	51.223
714.83	51.302
715.02	51.317
715.20	51.292
715.39	51.332
715.57	51.345
715.75	51.357
715.94	51.306
716.12	51.362
716.31	51.344
716.49	51.318
716.68	51.206
716.86	51.209
717.04	51.162
717.23	51.243
717.41	51.333
717.60	51.364
717.78	51.361
717.96	51.406
718.15	51.345
718.33	51.323
718.52	51.311
718.70	51.373
718.88	51.333
719.07	51.352
719.25	51.298
719.44	51.244
719.62	51.204
719.80	51.195
719.99	51.186
720.17	51.265
720.36	51.282
720.54	51.274
720.72	51.283
720.91	51.299
721.09	51.289
721.27	51.295
721.46	51.281
721.64	51.286
721.83	51.264
722.01	51.287
722.19	51.269
722.38	51.269
722.56	51.260
722.74	51.292
722.93	51.266
723.11	51.213
723.30	51.255
723.48	51.287
723.66	51.279
723.85	51.359
724.03	51.328
724.21	51.341
724.40	51.351
724.58	51.390
724.76	51.354
724.95	51.332
725.13	51.419
725.31	51.351
725.50	51.347
725.68	51.377
725.86	51.354
726.05	51.340
726.23	51.357
726.41	51.394
726.60	51.364
726.78	51.377
726.96	51.425
727.15	51.418
727.33	51.426
727.51	51.405
727.70	51.384
727.88	51.365
728.06	51.362
728.25	51.328
728.43	51.334
728.61	51.424
728.80	51.391
728.98	51.381
729.16	51.400
729.34	51.386
729.53	51.365
729.71	51.379
729.89	51.388
730.08	51.386
730.26	51.327
730.44	51.262
730.63	51.146
730.81	51.136
730.99	51.210
731.17	51.211
731.36	51.227
731.54	51.202
731.72	51.246
731.91	51.222
732.09	51.269
732.27	51.355
732.45	51.347
732.64	51.405
732.82	51.434
733.00	51.367
733.19	51.363
733.37	51.418
733.55	51.448
733.73	51.437
733.92	51.485
734.10	51.520
734.28	51.488
734.46	51.528
734.65	51.489
734.83	51.508
735.01	51.502
735.19	51.496
735.38	51.413
735.56	51.425
735.74	51.441
735.92	51.394
736.11	51.393
736.29	51.370
736.47	51.326
736.65	51.381
736.84	51.369
737.02	51.388
737.20	51.391
737.38	51.434
737.57	51.390
737.75	51.313
737.93	51.362
738.11	51.264
738.30	51.250
738.48	51.319
738.66	51.259
738.84	51.252
739.02	51.194
739.21	51.169
739.39	51.210
739.57	51.290
739.75	51.299
739.93	51.301
740.12	51.354
740.30	51.360
740.48	51.311
740.66	51.335
740.85	51.399
741.03	51.426
741.21	51.522
741.39	51.504
741.57	51.480
741.76	51.465
741.94	51.420
742.12	51.404
742.30	51.512
742.48	51.572
742.66	51.599
742.85	51.539
743.03	51.610
743.21	51.548
743.39	51.524
743.57	51.555
743.76	51.585
743.94	51.598
744.12	51.553
744.30	51.520
744.48	51.472
744.66	51.470
744.85	51.471
745.03	51.427
745.21	51.452
745.39	51.491
745.57	51.532
745.75	51.507
745.94	51.495
746.12	51.543
746.30	51.531
746.48	51.619
746.66	51.631
746.84	51.629
747.02	51.640
747.21	51.610
747.39	51.547
747.57	51.454
747.75	51.506
747.93	51.522
748.11	51.601
748.29	51.659
748.48	51.612
748.66	51.652
748.84	51.646
749.02	51.630
749.20	51.622
749.38	51.668
749.56	51.601
749.75	51.650
749.93	51.670
750.11	51.618
750.29	51.567
750.47	51.529
750.65	51.489
750.83	51.543
751.01	51.514
751.19	51.456
751.38	51.486
751.56	51.602
751.74	51.592
751.92	51.620
752.10	51.639
752.28	51.596
752.46	51.687
752.64	51.694
752.82	51.680
753.00	51.750
753.19	51.850
753.37	51.758
753.55	51.780
753.73	51.724
753.91	51.708
754.09	51.645
754.27	51.703
754.45	51.656
754.63	51.631
754.81	51.623
754.99	51.601
755.17	51.700
755.36	51.812
755.54	51.795
755.72	51.902
755.90	51.894
756.08	51.964
756.26	51.932
756.44	51.895
756.62	51.858
756.80	51.832
756.98	51.806
757.16	51.659
757.34	51.647
757.52	51.719
757.70	51.597
757.88	51.591
758.06	51.579
758.24	51.611
758.42	51.667
758.61	51.659
758.79	51.634
758.97	51.705
759.15	51.700
759.33	51.705
759.51	51.577
759.69	51.619
759.87	51.665
760.05	51.648
760.23	51.600
760.41	51.564
760.59	51.610
760.77	51.656
760.95	51.635
761.13	51.595
761.31	51.635
761.49	51.636
761.67	51.658
761.85	51.642
762.03	51.595
762.21	51.624
762.39	51.679
762.57	51.719
762.75	51.657
762.93	51.570
763.11	51.576
763.29	51.412
763.47	51.342
763.65	51.281
763.83	51.193
764.01	51.210
764.19	51.186
764.37	51.143
764.55	51.059
764.73	51.057
764.91	51.089
765.09	51.115
765.27	51.146
765.45	51.236
765.63	51.259
765.81	51.311
765.99	51.339
766.17	51.351
766.35	51.341
766.53	51.388
766.71	51.471
766.89	51.511
767.07	51.526
767.25	51.616
767.43	51.594
767.61	51.698
767.78	51.761
767.96	51.748
768.14	51.831
768.32	51.893
768.50	51.967
768.68	51.924
768.86	51.875
769.04	51.825
769.22	51.844
769.40	51.917
769.58	51.839
769.76	51.815
769.94	51.767
770.12	51.719
770.30	51.696
770.48	51.657
770.66	51.664
770.84	51.624
771.01	51.660
771.19	51.603
771.37	51.702
771.55	51.759
771.73	51.783
771.91	51.901
772.09	51.949
772.27	51.903
772.45	51.954
772.63	52.063
772.81	52.069
772.99	51.973
773.16	51.956
773.34	51.819
773.52	51.823
773.70	51.880
773.88	51.951
774.06	51.922
774.24	52.000
774.42	51.987
774.60	51.920
774.78	51.994
774.95	52.116
775.13	52.254
775.31	52.191
775.49	52.163
775.67	52.241
775.85	52.235
776.03	52.236
776.21	52.235
776.38	52.165
776.56	52.144
776.74	52.166
776.92	52.192
777.10	52.150
777.28	52.247
777.46	52.336
777.64	52.239
777.81	52.219
777.99	52.279
778.17	52.234
778.35	52.292
778.53	52.308
778.71	52.360
778.89	52.340
779.06	52.378
779.24	52.420
779.42	52.351
779.60	52.346
779.78	52.239
779.96	52.255
780.13	52.370
780.31	52.423
780.49	52.437
780.67	52.409
780.85	52.460
781.03	52.351
781.20	52.262
781.38	52.222
781.56	52.211
781.74	52.281
781.92	52.155
782.10	52.095
782.27	52.146
782.45	52.031
782.63	51.924
782.81	51.904
782.99	52.030
783.17	52.039
783.34	52.039
783.52	52.127
783.70	52.109
783.88	52.223
784.06	52.274
784.23	52.179
784.41	52.336
784.59	52.451
784.77	52.494
784.95	52.480
785.12	52.448
785.30	52.496
785.48	52.403
785.66	52.454
785.83	52.444
786.01	52.463
786.19	52.498
786.37	52.304
786.55	52.319
786.72	52.192
786.90	52.142
787.08	52.214
787.26	52.166
787.43	52.185
787.61	52.181
787.79	52.107
787.97	52.011
788.15	51.965
788.32	52.021
788.50	52.089
788.68	52.185
788.86	52.184
789.03	52.192
789.21	52.256
789.39	52.307
789.57	52.243
789.74	52.207
789.92	52.273
790.10	52.307
790.28	52.414
790.45	52.366
790.63	52.287
790.81	52.353
790.99	52.254
791.16	52.305
791.34	52.299
791.52	52.245
791.69	52.281
791.87	52.247
792.05	52.290
792.23	52.348
792.40	52.273
792.58	52.392
792.76	52.378
792.94	52.526
793.11	52.516
793.29	52.500
793.47	52.594
793.64	52.757
793.82	52.883
794.00	52.854
794.18	52.727
794.35	52.806
794.53	52.686
794.71	52.687
794.88	52.627
795.06	52.644
795.24	52.597
795.41	52.715
795.59	52.640
795.77	52.569
795.94	52.436
796.12	52.559
796.30	52.521
796.48	52.460
796.65	52.405
796.83	52.439
797.01	52.315
797.18	52.287
797.36	52.132
797.54	52.184
797.71	52.027
797.89	52.163
798.07	52.060
798.24	52.030
798.42	52.105
798.60	52.183
798.77	52.110
798.95	52.129
799.13	52.210
799.30	52.271
799.48	52.143
799.66	52.281
799.83	52.388
800.01	52.423
800.18	52.537
800.36	52.507
800.54	52.377
800.71	52.387
800.89	52.372
801.07	52.232
801.24	52.313
801.42	52.507
801.60	52.501
801.77	52.337
801.95	52.232
802.12	52.183
802.30	52.307
802.48	52.342
802.65	52.374
802.83	52.418
803.01	52.618
803.18	52.511
803.36	52.385
803.53	52.477
803.71	52.574
803.89	52.639
804.06	52.547
804.24	52.588
804.41	52.683
804.59	52.728
804.77	53.004
804.94	52.871
805.12	52.932
805.29	52.820
805.47	52.795
805.65	52.754
805.82	52.799
806.00	52.985
806.17	52.839
806.35	52.783
806.53	52.870
806.70	52.650
806.88	52.808
807.05	52.865
807.23	52.900
807.40	52.854
807.58	52.869
807.76	52.931
807.93	52.699
808.11	52.792
808.28	52.777
808.46	52.772
808.63	52.703
808.81	52.513
808.99	52.468
809.16	52.534
809.34	52.477
809.51	52.399
809.69	52.394
809.86	52.501
810.04	52.373
810.21	52.358
810.39	52.243
810.57	52.338
810.74	52.338
810.92	52.286
811.09	52.205
811.27	52.343
811.44	52.409
811.62	52.404
811.79	52.455
811.97	52.523
812.14	52.480
812.32	52.454
812.49	52.383
812.67	52.599
812.84	52.647
813.02	52.865
813.19	52.868
813.37	52.779
813.55	52.649
813.72	52.706
813.90	52.788
814.07	52.907
814.25	52.796
814.42	52.881
814.60	52.752
814.77	52.729
814.95	52.700
815.12	52.538
815.30	52.868
815.47	52.877
815.65	52.819
815.82	52.836
816.00	52.869
816.17	52.904
816.35	52.789
816.52	52.890
816.69	52.996
816.87	52.945
817.04	53.102
817.22	52.897
817.39	52.959
817.57	53.022
817.74	53.022
817.92	53.087
818.09	53.119
818.27	53.122
818.44	53.119
818.62	53.092
818.79	53.073
818.97	53.100
819.14	53.156
819.32	53.176
819.49	53.109
819.66	53.111
819.84	53.039
820.01	53.116
820.19	53.165
820.36	52.986
820.54	52.995
820.71	52.943
820.89	52.953
821.06	53.018
821.23	53.061
821.41	53.028
821.58	52.880
821.76	52.673
821.93	52.419
822.11	52.153
822.28	51.933
822.45	51.684
822.63	51.539
822.80	51.436
822.98	51.325
823.15	51.225
823.33	51.132
823.50	51.030
823.67	50.981
823.85	50.972
824.02	51.023
824.20	51.153
824.37	51.340
824.54	51.517
824.72	51.658
824.89	51.781
825.07	51.920
825.24	52.049
825.41	52.212
825.59	52.343
825.76	52.445
825.94	52.585
826.11	52.691
826.28	52.778
826.46	52.842
826.63	52.769
826.80	52.691
826.98	52.577
827.15	52.492
827.33	52.398
827.50	52.278
827.67	52.221
827.85	52.112
828.02	51.994
828.19	51.961
828.37	51.894
828.54	51.930
828.72	52.013
828.89	52.061
829.06	52.135
829.24	52.291
829.41	52.407
829.58	52.521
829.76	52.691
829.93	52.811
830.10	52.824
830.28	52.903
830.45	52.975
830.62	53.060
830.80	53.225
830.97	53.222
831.14	53.266
831.32	53.414
831.49	53.433
831.66	53.352
831.84	53.339
832.01	53.395
832.18	53.404
832.36	53.443
832.53	53.448
832.70	53.556
832.88	53.643
833.05	53.526
833.22	53.394
833.40	53.299
833.57	53.195
833.74	53.028
833.91	52.920
834.09	52.835
834.26	52.699
834.43	52.652
834.61	52.488
834.78	52.351
834.95	52.340
835.13	52.304
835.30	52.279
835.47	52.262
835.64	52.395
835.82	52.428
835.99	52.459
836.16	52.673
836.34	52.747
836.51	52.906
836.68	53.005
836.85	53.025
837.03	53.237
837.20	53.340
837.37	53.442
837.54	53.458
837.72	53.470
837.89	53.432
838.06	53.329
838.24	53.219
838.41	53.268
838.58	53.365
838.75	53.403
838.93	53.369
839.10	53.402
839.27	53.496
839.44	53.494
839.62	53.610
839.79	53.745
839.96	53.661
840.13	53.672
840.31	53.513
840.48	53.475
840.65	53.385
840.82	53.251
840.99	53.139
841.17	53.065
841.34	53.146
841.51	53.062
841.68	53.032
841.86	53.113
842.03	53.226
842.20	53.349
842.37	53.372
842.55	53.438
842.72	53.363
842.89	53.486
843.06	53.523
843.23	53.331
843.41	53.377
843.58	53.432
843.75	53.364
843.92	53.039
844.09	52.799
844.27	52.627
844.44	52.639
844.61	52.730
844.78	52.713
844.95	52.948
845.13	53.107
845.30	53.168
845.47	53.097
845.64	53.156
845.81	53.562
845.98	53.790
846.16	53.878
846.33	54.014
846.50	54.094
846.67	53.969
846.84	53.857
847.02	53.742
847.19	54.012
847.36	53.831
847.53	53.855
847.70	53.841
847.87	54.180
848.04	54.269
848.22	54.080
848.39	53.777
848.56	53.928
848.73	53.714
848.90	53.767
849.07	53.400
849.25	53.284
849.42	53.219
849.59	52.753
849.76	52.319
849.93	52.373
850.10	52.409
850.27	52.543
850.45	52.790
850.62	53.036
850.79	52.984
850.96	52.776
851.13	53.263
851.30	53.257
851.47	53.776
851.64	53.790
851.82	53.686
851.99	53.641
852.16	53.906
852.33	53.843
852.50	53.609
852.67	53.535
852.84	53.871
853.01	53.600
853.18	53.654
853.35	53.168
853.53	53.281
853.70	53.657
853.87	53.772
854.04	53.724
854.21	53.749
854.38	53.716
854.55	53.660
854.72	53.757
854.89	53.757
855.06	53.704
855.23	53.996
855.41	53.929
855.58	53.483
855.75	53.517
855.92	53.418
856.09	53.103
856.26	53.042
856.43	53.182
856.60	52.979
856.77	53.072
856.94	52.819
857.11	53.099
857.28	53.209
857.45	53.482
857.62	53.551
857.80	53.305
857.97	53.363
858.14	53.583
858.31	53.517
858.48	54.076
858.65	54.226
858.82	54.667
858.99	54.039
859.16	53.720
859.33	54.000
859.50	53.697
859.67	54.185
859.84	54.493
860.01	54.460
860.18	54.835
860.35	54.508
860.52	54.540
860.69	54.157
860.86	54.760
861.03	54.413
861.20	54.225
861.37	54.274
861.54	53.807
861.71	53.491
861.88	53.568
862.05	53.330
862.22	53.231
862.39	53.219
862.56	53.319
862.73	53.280
862.90	53.937
863.07	53.676
863.24	53.692
863.41	53.811
863.58	53.903
863.75	53.879
863.92	53.682
864.09	53.694
864.26	53.282
864.43	53.262
864.60	53.124
864.77	53.040
864.94	53.268
865.11	53.383
865.28	53.540
865.45	53.708
865.62	53.743
865.79	53.948
865.96	53.499
866.13	53.789
866.30	53.791
866.47	53.808
866.64	53.496
866.81	53.491
866.98	53.484
867.15	53.431
867.32	53.120
867.49	52.893
867.66	52.860
867.82	53.328
867.99	53.356
868.16	53.665
868.33	53.446
868.50	53.483
868.67	53.635
868.84	53.868
869.01	54.034
869.18	54.271
869.35	54.745
869.52	54.843
869.69	54.889
869.86	54.971
870.03	55.086
870.19	55.419
870.36	55.681
870.53	55.580
870.70	55.282
870.87	55.316
871.04	55.253
871.21	54.897
871.38	55.034
871.55	55.032
871.72	55.072
871.89	54.527
872.05	54.089
872.22	53.901
872.39	53.631
872.56	53.897
872.73	53.615
872.90	53.619
873.07	53.748
873.24	53.677
873.41	53.699
873.57	53.738
873.74	54.006
873.91	54.316
874.08	54.489
874.25	54.780
874.42	54.530
874.59	54.876
874.76	54.750
874.92	54.953
875.09	54.980
875.26	54.923
875.43	54.576
875.60	54.537
875.77	54.456
875.94	54.430
876.11	54.642
876.27	54.864
876.44	54.732
876.61	55.243
876.78	54.790
876.95	54.517
877.12	54.464
877.28	54.486
877.45	54.713
877.62	54.739
877.79	54.770
877.96	54.420
878.13	54.146
878.29	53.816
878.46	53.471
878.63	53.805
878.80	53.910
878.97	54.041
879.14	54.356
879.30	54.362
879.47	54.632
879.64	54.594
879.81	54.728
879.98	54.862
880.14	55.216
880.31	55.227
880.48	55.180
880.65	55.152
880.82	55.018
880.98	54.635
881.15	54.272
881.32	53.846
881.49	53.582
881.66	53.303
881.82	53.093
881.99	52.881
882.16	52.778
882.33	52.674
882.50	52.592
882.66	52.489
882.83	52.467
883.00	52.450
883.17	52.496
883.33	52.583
883.50	52.707
883.67	52.860
883.84	53.001
884.01	53.104
884.17	53.197
884.34	53.268
884.51	53.380
884.68	53.447
884.84	53.530
885.01	53.712
885.18	53.714
885.35	53.791
885.51	53.746
885.68	53.889
885.85	53.936
886.02	54.017
886.18	53.985
886.35	53.979
886.52	54.122
886.69	54.120
886.85	53.814
887.02	53.930
887.19	53.744
887.35	53.927
887.52	53.743
887.69	53.650
887.86	53.512
888.02	53.622
888.19	53.750
888.36	54.145
888.53	53.644
888.69	53.145
888.86	53.712
889.03	54.730
>>>>>End Spectral Data<<<<<
