OOIBase32 Version 2.0.6.5 Data File
++++++++++++++++++++++++++++++++++++
Date: 11-17-2016, 11:09:40
User: Valued Ocean Optics Customer
Spectrometer Serial Number: USB4C01507
Spectrometer Channel: Master
Integration Time (msec): 49
Spectra Averaged: 25
Boxcar Smoothing: 5
Correct for Electrical Dark: Enabled
Time Normalized: Disabled
Dual-beam Reference: Disabled
Reference Channel: Master
Temperature: Not acquired
Spectrometer Type: S4000
ADC Type: USB4000
Number of Pixels in File: 3648
Graph Title: 
>>>>>Begin Spectral Data<<<<<
178.53	1659.330
178.74	2275.230
178.96	78.438
179.18	-7.987
179.39	169.498
179.61	-60.098
179.82	50.505
180.04	225.582
180.25	108.628
180.47	7.179
180.69	124.577
180.90	398.156
181.12	241.649
181.33	178.817
181.55	57.672
181.76	-8709.621
181.98	-42.973
182.20	505.329
182.41	37.771
182.63	90.305
182.84	32.091
183.06	25.366
183.27	19.745
183.49	14.980
183.71	17.477
183.92	9.647
184.14	13.686
184.35	28.046
184.57	18.450
184.78	33.844
185.00	33.876
185.21	39.242
185.43	36.903
185.65	32.881
185.86	31.144
186.08	25.795
186.29	25.694
186.51	24.301
186.72	12.002
186.94	13.765
187.15	6.142
187.37	-0.948
187.58	-2.825
187.80	0.057
188.02	-0.232
188.23	0.866
188.45	-3.195
188.66	2.778
188.88	5.115
189.09	14.785
189.31	21.248
189.52	22.085
189.74	24.523
189.95	32.473
190.17	28.808
190.38	31.781
190.60	35.086
190.82	41.086
191.03	32.583
191.25	34.898
191.46	27.730
191.68	19.869
191.89	18.261
192.11	22.314
192.32	13.082
192.54	13.323
192.75	16.934
192.97	14.327
193.18	17.081
193.40	22.925
193.61	20.834
193.83	26.907
194.04	22.295
194.26	26.546
194.48	19.430
194.69	21.262
194.91	23.537
195.12	21.593
195.34	24.937
195.55	21.125
195.77	11.846
195.98	13.869
196.20	15.755
196.41	20.317
196.63	18.720
196.84	19.135
197.06	20.333
197.27	21.716
197.49	23.053
197.70	23.503
197.92	21.390
198.13	26.142
198.35	19.388
198.56	15.853
198.78	13.305
198.99	10.508
199.21	7.013
199.42	6.133
199.64	5.997
199.85	5.633
200.07	7.343
200.28	11.947
200.50	9.881
200.71	14.447
200.93	17.503
201.14	17.409
201.36	15.692
201.57	22.341
201.79	25.014
202.00	22.362
202.22	22.248
202.43	23.303
202.65	19.469
202.86	16.435
203.08	14.866
203.29	8.297
203.51	8.528
203.72	10.051
203.94	12.448
204.15	10.576
204.37	13.241
204.58	15.102
204.80	15.400
205.01	16.923
205.22	21.872
205.44	22.477
205.65	21.986
205.87	22.640
206.08	23.370
206.30	20.539
206.51	18.477
206.73	16.553
206.94	12.302
207.16	8.006
207.37	9.223
207.59	7.168
207.80	8.578
208.02	10.409
208.23	9.463
208.45	12.315
208.66	8.508
208.88	8.875
209.09	9.455
209.30	15.280
209.52	14.996
209.73	14.416
209.95	15.829
210.16	12.262
210.38	15.032
210.59	15.639
210.81	9.295
211.02	11.472
211.24	10.189
211.45	8.005
211.66	7.628
211.88	9.065
212.09	7.054
212.31	7.494
212.52	9.225
212.74	4.787
212.95	3.690
213.17	6.410
213.38	8.973
213.60	13.674
213.81	13.893
214.02	12.404
214.24	10.609
214.45	8.592
214.67	7.207
214.88	7.555
215.10	10.293
215.31	9.800
215.53	9.687
215.74	7.656
215.95	6.243
216.17	5.646
216.38	5.147
216.60	5.485
216.81	10.251
217.03	9.268
217.24	8.246
217.45	9.548
217.67	10.414
217.88	12.172
218.10	12.418
218.31	11.395
218.53	11.872
218.74	11.136
218.95	8.203
219.17	5.901
219.38	7.129
219.60	9.093
219.81	7.513
220.03	7.028
220.24	4.876
220.45	3.927
220.67	3.763
220.88	4.430
221.10	5.812
221.31	6.584
221.53	6.484
221.74	5.436
221.95	4.221
222.17	2.762
222.38	3.508
222.60	3.010
222.81	2.038
223.02	2.651
223.24	2.695
223.45	2.519
223.67	1.846
223.88	1.942
224.09	2.515
224.31	2.936
224.52	4.259
224.74	2.825
224.95	4.013
225.16	4.761
225.38	4.043
225.59	4.328
225.81	3.335
226.02	3.359
226.23	2.958
226.45	2.658
226.66	2.317
226.88	2.109
227.09	2.989
227.30	2.615
227.52	2.713
227.73	2.822
227.95	2.662
228.16	2.911
228.37	3.000
228.59	3.064
228.80	3.165
229.02	3.220
229.23	3.211
229.44	3.077
229.66	3.044
229.87	3.085
230.08	3.037
230.30	3.073
230.51	3.011
230.73	3.075
230.94	3.064
231.15	2.805
231.37	2.603
231.58	2.541
231.80	2.412
232.01	2.652
232.22	2.571
232.44	2.772
232.65	2.836
232.86	2.487
233.08	2.237
233.29	2.200
233.51	2.549
233.72	2.653
233.93	2.820
234.15	2.885
234.36	2.726
234.57	2.642
234.79	2.552
235.00	2.636
235.21	3.029
235.43	3.374
235.64	3.173
235.86	3.092
236.07	3.105
236.28	2.783
236.50	2.770
236.71	3.042
236.92	3.419
237.14	3.609
237.35	3.642
237.56	3.544
237.78	3.344
237.99	3.577
238.20	3.409
238.42	3.749
238.63	3.741
238.84	4.089
239.06	3.883
239.27	3.377
239.48	3.196
239.70	3.033
239.91	2.653
240.13	2.490
240.34	2.519
240.55	2.544
240.77	2.412
240.98	2.569
241.19	2.492
241.41	2.378
241.62	2.369
241.83	2.364
242.05	2.452
242.26	2.582
242.47	2.668
242.69	2.632
242.90	2.670
243.11	2.649
243.33	2.620
243.54	2.623
243.75	2.690
243.97	2.850
244.18	2.919
244.39	2.979
244.61	2.853
244.82	2.809
245.03	2.833
245.24	2.804
245.46	2.750
245.67	2.726
245.88	2.705
246.10	2.709
246.31	2.622
246.52	2.533
246.74	2.469
246.95	2.485
247.16	2.487
247.38	2.470
247.59	2.479
247.80	2.492
248.02	2.512
248.23	2.508
248.44	2.548
248.66	2.597
248.87	2.656
249.08	2.698
249.29	2.795
249.51	2.825
249.72	2.987
249.93	3.110
250.15	3.163
250.36	3.034
250.57	2.927
250.79	2.950
251.00	2.913
251.21	2.975
251.42	2.942
251.64	2.834
251.85	2.841
252.06	2.801
252.28	2.569
252.49	2.592
252.70	2.653
252.91	2.711
253.13	2.591
253.34	2.623
253.55	2.633
253.77	2.597
253.98	2.732
254.19	2.635
254.40	2.454
254.62	2.750
254.83	2.569
255.04	2.553
255.26	2.523
255.47	2.524
255.68	2.438
255.89	2.412
256.11	2.452
256.32	2.285
256.53	2.469
256.75	2.552
256.96	2.361
257.17	2.512
257.38	2.773
257.60	2.735
257.81	2.700
258.02	2.620
258.23	2.537
258.45	2.462
258.66	2.452
258.87	2.340
259.09	2.321
259.30	2.339
259.51	2.310
259.72	2.235
259.94	2.217
260.15	2.215
260.36	2.239
260.57	2.227
260.79	2.233
261.00	2.189
261.21	2.182
261.42	2.216
261.64	2.199
261.85	2.201
262.06	2.163
262.27	2.350
262.49	2.329
262.70	2.307
262.91	2.326
263.12	2.356
263.34	2.426
263.55	2.400
263.76	2.334
263.97	2.459
264.19	2.510
264.40	2.546
264.61	2.445
264.82	2.473
265.04	2.513
265.25	2.527
265.46	2.488
265.67	2.537
265.88	2.593
266.10	2.477
266.31	2.361
266.52	2.228
266.73	2.317
266.95	2.238
267.16	2.313
267.37	2.223
267.58	2.201
267.80	2.289
268.01	2.247
268.22	2.252
268.43	2.340
268.64	2.415
268.86	2.469
269.07	2.395
269.28	2.306
269.49	2.231
269.71	2.260
269.92	2.208
270.13	2.230
270.34	2.209
270.55	2.249
270.77	2.303
270.98	2.262
271.19	2.354
271.40	2.267
271.61	2.301
271.83	2.291
272.04	2.309
272.25	2.437
272.46	2.339
272.68	2.366
272.89	2.363
273.10	2.298
273.31	2.264
273.52	2.240
273.74	2.301
273.95	2.266
274.16	2.299
274.37	2.317
274.58	2.296
274.80	2.385
275.01	2.398
275.22	2.390
275.43	2.459
275.64	2.483
275.86	2.521
276.07	2.432
276.28	2.586
276.49	2.602
276.70	2.552
276.91	2.434
277.13	2.297
277.34	2.336
277.55	2.338
277.76	2.311
277.97	2.313
278.19	2.270
278.40	2.336
278.61	2.229
278.82	2.162
279.03	2.104
279.24	2.125
279.46	2.172
279.67	2.138
279.88	1.983
280.09	1.990
280.30	2.019
280.52	2.035
280.73	2.023
280.94	1.962
281.15	2.058
281.36	2.142
281.57	2.158
281.79	2.279
282.00	2.278
282.21	2.409
282.42	2.398
282.63	2.476
282.84	2.390
283.06	2.449
283.27	2.531
283.48	2.424
283.69	2.408
283.90	2.453
284.11	2.266
284.32	2.257
284.54	2.193
284.75	2.173
284.96	2.055
285.17	2.080
285.38	2.045
285.59	2.050
285.81	2.127
286.02	2.162
286.23	2.144
286.44	2.200
286.65	2.231
286.86	2.253
287.07	2.227
287.29	2.260
287.50	2.285
287.71	2.289
287.92	2.329
288.13	2.319
288.34	2.261
288.55	2.273
288.77	2.297
288.98	2.251
289.19	2.288
289.40	2.381
289.61	2.449
289.82	2.408
290.03	2.369
290.24	2.372
290.46	2.313
290.67	2.449
290.88	2.448
291.09	2.399
291.30	2.396
291.51	2.379
291.72	2.426
291.93	2.409
292.15	2.432
292.36	2.598
292.57	2.548
292.78	2.512
292.99	2.334
293.20	2.364
293.41	2.392
293.62	2.406
293.84	2.438
294.05	2.305
294.26	2.239
294.47	2.316
294.68	2.240
294.89	2.313
295.10	2.324
295.31	2.390
295.52	2.337
295.73	2.351
295.95	2.342
296.16	2.379
296.37	2.548
296.58	2.606
296.79	2.524
297.00	2.519
297.21	2.470
297.42	2.497
297.63	2.489
297.84	2.480
298.06	2.474
298.27	2.533
298.48	2.545
298.69	2.379
298.90	2.350
299.11	2.439
299.32	2.442
299.53	2.424
299.74	2.398
299.95	2.408
300.16	2.392
300.38	2.465
300.59	2.354
300.80	2.326
301.01	2.338
301.22	2.313
301.43	2.299
301.64	2.244
301.85	2.270
302.06	2.280
302.27	2.243
302.48	2.351
302.69	2.207
302.91	2.305
303.12	2.322
303.33	2.349
303.54	2.389
303.75	2.310
303.96	2.382
304.17	2.355
304.38	2.360
304.59	2.413
304.80	2.408
305.01	2.481
305.22	2.384
305.43	2.349
305.64	2.371
305.85	2.296
306.06	2.338
306.28	2.313
306.49	2.322
306.70	2.305
306.91	2.213
307.12	2.137
307.33	2.086
307.54	2.212
307.75	2.188
307.96	2.171
308.17	2.222
308.38	2.289
308.59	2.277
308.80	2.299
309.01	2.371
309.22	2.408
309.43	2.444
309.64	2.492
309.85	2.404
310.06	2.450
310.27	2.479
310.48	2.435
310.70	2.444
310.91	2.470
311.12	2.450
311.33	2.441
311.54	2.418
311.75	2.384
311.96	2.384
312.17	2.392
312.38	2.382
312.59	2.385
312.80	2.408
313.01	2.396
313.22	2.402
313.43	2.436
313.64	2.419
313.85	2.441
314.06	2.502
314.27	2.545
314.48	2.672
314.69	2.732
314.90	2.776
315.11	2.790
315.32	2.794
315.53	2.811
315.74	2.787
315.95	2.843
316.16	2.854
316.37	2.792
316.58	2.779
316.79	2.684
317.00	2.654
317.21	2.522
317.42	2.502
317.63	2.475
317.84	2.425
318.05	2.474
318.26	2.374
318.47	2.333
318.68	2.418
318.89	2.421
319.10	2.438
319.31	2.431
319.52	2.565
319.73	2.539
319.94	2.535
320.15	2.524
320.36	2.551
320.57	2.568
320.78	2.635
320.99	2.569
321.20	2.517
321.41	2.516
321.62	2.437
321.83	2.400
322.04	2.496
322.25	2.485
322.46	2.511
322.67	2.488
322.88	2.493
323.09	2.437
323.30	2.454
323.51	2.463
323.72	2.486
323.93	2.519
324.14	2.564
324.35	2.555
324.56	2.603
324.77	2.573
324.98	2.550
325.19	2.573
325.40	2.628
325.61	2.676
325.82	2.748
326.03	2.746
326.24	2.798
326.45	2.731
326.65	2.675
326.86	2.641
327.07	2.757
327.28	2.802
327.49	2.819
327.70	2.812
327.91	2.808
328.12	2.820
328.33	2.798
328.54	2.790
328.75	2.883
328.96	2.964
329.17	2.949
329.38	2.874
329.59	2.861
329.80	2.872
330.01	2.932
330.22	2.945
330.43	2.927
330.64	2.963
330.85	2.953
331.05	2.874
331.26	2.874
331.47	2.870
331.68	2.886
331.89	2.932
332.10	2.930
332.31	2.902
332.52	2.855
332.73	2.798
332.94	2.854
333.15	2.851
333.36	2.915
333.57	2.904
333.78	2.920
333.99	2.930
334.19	2.898
334.40	2.929
334.61	2.965
334.82	3.051
335.03	3.053
335.24	3.039
335.45	3.074
335.66	3.114
335.87	3.136
336.08	3.177
336.29	3.192
336.50	3.220
336.71	3.220
336.91	3.237
337.12	3.172
337.33	3.237
337.54	3.230
337.75	3.206
337.96	3.098
338.17	3.106
338.38	3.094
338.59	3.149
338.80	3.106
339.01	3.095
339.21	3.056
339.42	3.103
339.63	3.065
339.84	3.133
340.05	3.151
340.26	3.202
340.47	3.212
340.68	3.256
340.89	3.219
341.10	3.244
341.30	3.289
341.51	3.325
341.72	3.330
341.93	3.381
342.14	3.289
342.35	3.329
342.56	3.317
342.77	3.368
342.98	3.310
343.18	3.314
343.39	3.306
343.60	3.308
343.81	3.345
344.02	3.356
344.23	3.370
344.44	3.379
344.65	3.348
344.85	3.388
345.06	3.334
345.27	3.408
345.48	3.367
345.69	3.459
345.90	3.499
346.11	3.469
346.32	3.440
346.52	3.433
346.73	3.474
346.94	3.499
347.15	3.526
347.36	3.532
347.57	3.522
347.78	3.581
347.98	3.558
348.19	3.491
348.40	3.491
348.61	3.534
348.82	3.558
349.03	3.606
349.24	3.603
349.44	3.565
349.65	3.579
349.86	3.596
350.07	3.619
350.28	3.620
350.49	3.653
350.70	3.674
350.90	3.694
351.11	3.665
351.32	3.611
351.53	3.636
351.74	3.618
351.95	3.644
352.15	3.615
352.36	3.642
352.57	3.641
352.78	3.690
352.99	3.735
353.20	3.772
353.40	3.816
353.61	3.835
353.82	3.836
354.03	3.911
354.24	3.871
354.45	3.913
354.65	3.938
354.86	3.946
355.07	3.922
355.28	3.902
355.49	3.870
355.70	3.843
355.90	3.873
356.11	3.902
356.32	3.904
356.53	3.948
356.74	3.961
356.94	3.925
357.15	3.922
357.36	3.934
357.57	3.963
357.78	3.957
357.99	3.972
358.19	3.950
358.40	3.930
358.61	3.947
358.82	3.979
359.03	3.984
359.23	3.987
359.44	4.010
359.65	4.005
359.86	4.029
360.07	4.058
360.27	4.112
360.48	4.152
360.69	4.188
360.90	4.178
361.11	4.245
361.31	4.235
361.52	4.272
361.73	4.270
361.94	4.286
362.15	4.265
362.35	4.271
362.56	4.278
362.77	4.255
362.98	4.281
363.18	4.291
363.39	4.241
363.60	4.305
363.81	4.294
364.02	4.310
364.22	4.326
364.43	4.308
364.64	4.314
364.85	4.274
365.05	4.317
365.26	4.292
365.47	4.341
365.68	4.316
365.89	4.278
366.09	4.327
366.30	4.336
366.51	4.346
366.72	4.362
366.92	4.417
367.13	4.478
367.34	4.477
367.55	4.493
367.75	4.490
367.96	4.527
368.17	4.536
368.38	4.497
368.58	4.481
368.79	4.482
369.00	4.496
369.21	4.473
369.41	4.457
369.62	4.444
369.83	4.436
370.04	4.416
370.24	4.406
370.45	4.433
370.66	4.454
370.87	4.434
371.07	4.384
371.28	4.386
371.49	4.370
371.70	4.360
371.90	4.376
372.11	4.392
372.32	4.419
372.53	4.437
372.73	4.441
372.94	4.420
373.15	4.503
373.36	4.571
373.56	4.607
373.77	4.607
373.98	4.646
374.19	4.671
374.39	4.694
374.60	4.721
374.81	4.752
375.01	4.747
375.22	4.771
375.43	4.757
375.64	4.740
375.84	4.759
376.05	4.810
376.26	4.811
376.46	4.756
376.67	4.765
376.88	4.766
377.09	4.727
377.29	4.735
377.50	4.732
377.71	4.774
377.91	4.826
378.12	4.819
378.33	4.827
378.54	4.842
378.74	4.870
378.95	4.847
379.16	4.851
379.36	4.856
379.57	4.866
379.78	4.925
379.99	4.894
380.19	4.863
380.40	4.845
380.61	4.799
380.81	4.774
381.02	4.802
381.23	4.819
381.43	4.824
381.64	4.899
381.85	4.909
382.05	4.895
382.26	4.928
382.47	4.936
382.67	4.971
382.88	5.006
383.09	5.049
383.30	5.092
383.50	5.123
383.71	5.105
383.92	5.063
384.12	5.088
384.33	5.023
384.54	5.005
384.74	5.041
384.95	5.038
385.16	5.048
385.36	5.038
385.57	5.030
385.78	5.026
385.98	5.041
386.19	5.047
386.40	5.028
386.60	5.075
386.81	5.082
387.02	5.081
387.22	5.094
387.43	5.106
387.64	5.132
387.84	5.148
388.05	5.165
388.26	5.179
388.46	5.207
388.67	5.256
388.88	5.286
389.08	5.296
389.29	5.283
389.49	5.296
389.70	5.292
389.91	5.269
390.11	5.250
390.32	5.267
390.53	5.272
390.73	5.279
390.94	5.263
391.15	5.270
391.35	5.284
391.56	5.314
391.77	5.322
391.97	5.349
392.18	5.394
392.38	5.437
392.59	5.437
392.80	5.457
393.00	5.465
393.21	5.491
393.42	5.509
393.62	5.528
393.83	5.551
394.04	5.566
394.24	5.559
394.45	5.545
394.65	5.539
394.86	5.545
395.07	5.555
395.27	5.550
395.48	5.518
395.68	5.554
395.89	5.573
396.10	5.567
396.30	5.548
396.51	5.569
396.72	5.598
396.92	5.592
397.13	5.572
397.33	5.570
397.54	5.567
397.75	5.625
397.95	5.617
398.16	5.584
398.36	5.585
398.57	5.611
398.78	5.606
398.98	5.613
399.19	5.627
399.39	5.665
399.60	5.681
399.81	5.716
400.01	5.705
400.22	5.712
400.42	5.767
400.63	5.768
400.84	5.791
401.04	5.817
401.25	5.807
401.45	5.830
401.66	5.830
401.86	5.837
402.07	5.864
402.28	5.909
402.48	5.905
402.69	5.905
402.89	5.939
403.10	5.933
403.31	5.949
403.51	5.957
403.72	5.985
403.92	6.022
404.13	6.020
404.33	6.012
404.54	5.991
404.75	6.011
404.95	6.032
405.16	6.027
405.36	6.044
405.57	6.042
405.77	6.074
405.98	6.046
406.18	6.042
406.39	6.053
406.60	6.078
406.80	6.082
407.01	6.072
407.21	6.065
407.42	6.110
407.62	6.124
407.83	6.127
408.03	6.126
408.24	6.161
408.45	6.160
408.65	6.204
408.86	6.223
409.06	6.255
409.27	6.267
409.47	6.264
409.68	6.247
409.88	6.275
410.09	6.302
410.29	6.297
410.50	6.321
410.71	6.344
410.91	6.345
411.12	6.350
411.32	6.352
411.53	6.371
411.73	6.400
411.94	6.405
412.14	6.429
412.35	6.463
412.55	6.498
412.76	6.490
412.96	6.499
413.17	6.510
413.37	6.512
413.58	6.537
413.78	6.573
413.99	6.605
414.19	6.659
414.40	6.638
414.61	6.632
414.81	6.651
415.02	6.664
415.22	6.669
415.43	6.687
415.63	6.707
415.84	6.718
416.04	6.726
416.25	6.716
416.45	6.695
416.66	6.721
416.86	6.723
417.07	6.727
417.27	6.743
417.48	6.762
417.68	6.785
417.89	6.789
418.09	6.799
418.30	6.798
418.50	6.780
418.71	6.800
418.91	6.811
419.12	6.828
419.32	6.830
419.53	6.840
419.73	6.876
419.94	6.874
420.14	6.880
420.34	6.886
420.55	6.894
420.75	6.938
420.96	6.945
421.16	6.943
421.37	6.965
421.57	6.993
421.78	7.002
421.98	6.987
422.19	7.002
422.39	7.040
422.60	7.061
422.80	7.080
423.01	7.092
423.21	7.129
423.42	7.159
423.62	7.140
423.83	7.124
424.03	7.134
424.23	7.152
424.44	7.142
424.64	7.146
424.85	7.152
425.05	7.156
425.26	7.171
425.46	7.170
425.67	7.166
425.87	7.194
426.08	7.240
426.28	7.256
426.48	7.271
426.69	7.331
426.89	7.342
427.10	7.380
427.30	7.433
427.51	7.462
427.71	7.476
427.92	7.490
428.12	7.517
428.32	7.521
428.53	7.546
428.73	7.572
428.94	7.587
429.14	7.596
429.35	7.598
429.55	7.599
429.76	7.608
429.96	7.618
430.16	7.678
430.37	7.699
430.57	7.709
430.78	7.744
430.98	7.758
431.19	7.771
431.39	7.789
431.59	7.815
431.80	7.834
432.00	7.821
432.21	7.831
432.41	7.825
432.61	7.843
432.82	7.864
433.02	7.866
433.23	7.869
433.43	7.871
433.64	7.876
433.84	7.879
434.04	7.884
434.25	7.907
434.45	7.939
434.66	7.947
434.86	7.956
435.06	7.971
435.27	7.997
435.47	8.021
435.68	8.033
435.88	8.063
436.08	8.070
436.29	8.084
436.49	8.112
436.70	8.103
436.90	8.121
437.10	8.142
437.31	8.156
437.51	8.158
437.71	8.174
437.92	8.204
438.12	8.215
438.33	8.246
438.53	8.263
438.73	8.273
438.94	8.304
439.14	8.320
439.35	8.320
439.55	8.332
439.75	8.343
439.96	8.347
440.16	8.345
440.36	8.351
440.57	8.356
440.77	8.375
440.97	8.378
441.18	8.385
441.38	8.387
441.59	8.408
441.79	8.421
441.99	8.450
442.20	8.469
442.40	8.500
442.60	8.527
442.81	8.541
443.01	8.549
443.21	8.574
443.42	8.589
443.62	8.625
443.83	8.637
444.03	8.669
444.23	8.678
444.44	8.705
444.64	8.720
444.84	8.719
445.05	8.729
445.25	8.738
445.45	8.749
445.66	8.747
445.86	8.741
446.06	8.748
446.27	8.746
446.47	8.751
446.67	8.753
446.88	8.760
447.08	8.790
447.28	8.810
447.49	8.824
447.69	8.843
447.89	8.876
448.10	8.925
448.30	8.954
448.50	8.969
448.71	8.997
448.91	9.026
449.11	9.050
449.32	9.067
449.52	9.088
449.72	9.124
449.93	9.137
450.13	9.141
450.33	9.152
450.53	9.173
450.74	9.217
450.94	9.249
451.14	9.271
451.35	9.292
451.55	9.296
451.75	9.315
451.96	9.309
452.16	9.328
452.36	9.349
452.57	9.359
452.77	9.388
452.97	9.393
453.17	9.386
453.38	9.407
453.58	9.420
453.78	9.437
453.99	9.452
454.19	9.500
454.39	9.542
454.59	9.583
454.80	9.599
455.00	9.609
455.20	9.612
455.41	9.637
455.61	9.647
455.81	9.685
456.01	9.724
456.22	9.757
456.42	9.760
456.62	9.769
456.83	9.779
457.03	9.802
457.23	9.819
457.43	9.869
457.64	9.896
457.84	9.900
458.04	9.908
458.25	9.913
458.45	9.923
458.65	9.940
458.85	9.939
459.06	9.929
459.26	9.930
459.46	9.933
459.66	9.929
459.87	9.933
460.07	9.944
460.27	9.950
460.47	9.954
460.68	9.979
460.88	9.982
461.08	10.003
461.28	10.038
461.49	10.068
461.69	10.111
461.89	10.149
462.09	10.178
462.30	10.209
462.50	10.235
462.70	10.270
462.90	10.268
463.11	10.327
463.31	10.352
463.51	10.373
463.71	10.405
463.92	10.418
464.12	10.429
464.32	10.439
464.52	10.448
464.72	10.480
464.93	10.496
465.13	10.503
465.33	10.496
465.53	10.502
465.74	10.517
465.94	10.522
466.14	10.543
466.34	10.552
466.54	10.556
466.75	10.581
466.95	10.580
467.15	10.610
467.35	10.632
467.56	10.650
467.76	10.678
467.96	10.701
468.16	10.714
468.36	10.728
468.57	10.769
468.77	10.811
468.97	10.838
469.17	10.853
469.37	10.860
469.58	10.889
469.78	10.916
469.98	10.920
470.18	10.942
470.38	10.970
470.59	10.978
470.79	10.989
470.99	11.014
471.19	11.026
471.39	11.062
471.60	11.074
471.80	11.076
472.00	11.091
472.20	11.119
472.40	11.125
472.61	11.142
472.81	11.166
473.01	11.177
473.21	11.163
473.41	11.187
473.61	11.178
473.82	11.229
474.02	11.256
474.22	11.280
474.42	11.301
474.62	11.338
474.82	11.364
475.03	11.411
475.23	11.434
475.43	11.490
475.63	11.509
475.83	11.550
476.03	11.544
476.24	11.552
476.44	11.572
476.64	11.585
476.84	11.579
477.04	11.596
477.24	11.589
477.45	11.626
477.65	11.632
477.85	11.641
478.05	11.640
478.25	11.654
478.45	11.675
478.65	11.688
478.86	11.711
479.06	11.729
479.26	11.749
479.46	11.784
479.66	11.788
479.86	11.807
480.06	11.846
480.27	11.884
480.47	11.896
480.67	11.919
480.87	11.926
481.07	11.952
481.27	11.993
481.47	12.011
481.68	12.019
481.88	12.054
482.08	12.108
482.28	12.175
482.48	12.251
482.68	12.329
482.88	12.423
483.08	12.606
483.29	12.697
483.49	12.639
483.69	12.577
483.89	12.544
484.09	12.524
484.29	12.499
484.49	12.480
484.69	12.462
484.89	12.441
485.10	12.396
485.30	12.253
485.50	12.138
485.70	12.187
485.90	12.271
486.10	12.345
486.30	12.402
486.50	12.460
486.70	12.505
486.90	12.528
487.11	12.549
487.31	12.564
487.51	12.556
487.71	12.548
487.91	12.549
488.11	12.545
488.31	12.551
488.51	12.553
488.71	12.568
488.91	12.581
489.11	12.601
489.32	12.633
489.52	12.658
489.72	12.706
489.92	12.773
490.12	12.842
490.32	12.917
490.52	12.959
490.72	12.982
490.92	12.973
491.12	12.956
491.32	12.944
491.52	12.920
491.72	12.917
491.92	12.917
492.13	12.911
492.33	12.892
492.53	12.884
492.73	12.889
492.93	12.903
493.13	12.938
493.33	12.974
493.53	13.024
493.73	13.084
493.93	13.127
494.13	13.168
494.33	13.186
494.53	13.213
494.73	13.235
494.93	13.238
495.13	13.272
495.33	13.285
495.53	13.304
495.73	13.321
495.94	13.337
496.14	13.352
496.34	13.358
496.54	13.388
496.74	13.396
496.94	13.421
497.14	13.438
497.34	13.431
497.54	13.449
497.74	13.456
497.94	13.482
498.14	13.499
498.34	13.515
498.54	13.547
498.74	13.561
498.94	13.585
499.14	13.605
499.34	13.631
499.54	13.659
499.74	13.674
499.94	13.716
500.14	13.736
500.34	13.753
500.54	13.779
500.74	13.783
500.94	13.797
501.14	13.828
501.34	13.844
501.54	13.865
501.74	13.868
501.94	13.893
502.14	13.906
502.34	13.924
502.54	13.951
502.74	13.964
502.94	13.982
503.14	14.014
503.34	14.023
503.54	14.051
503.74	14.069
503.94	14.104
504.14	14.109
504.34	14.136
504.54	14.153
504.74	14.169
504.94	14.186
505.14	14.223
505.34	14.228
505.54	14.257
505.74	14.282
505.94	14.306
506.14	14.332
506.34	14.359
506.54	14.380
506.74	14.392
506.94	14.408
507.14	14.420
507.34	14.428
507.54	14.452
507.74	14.460
507.94	14.459
508.14	14.468
508.34	14.481
508.54	14.498
508.74	14.501
508.94	14.528
509.13	14.541
509.33	14.571
509.53	14.595
509.73	14.611
509.93	14.627
510.13	14.663
510.33	14.687
510.53	14.710
510.73	14.734
510.93	14.770
511.13	14.783
511.33	14.816
511.53	14.829
511.73	14.840
511.93	14.874
512.13	14.895
512.33	14.894
512.53	14.897
512.73	14.902
512.92	14.919
513.12	14.935
513.32	14.965
513.52	14.983
513.72	15.011
513.92	15.034
514.12	15.037
514.32	15.053
514.52	15.073
514.72	15.095
514.92	15.112
515.12	15.132
515.32	15.144
515.52	15.156
515.71	15.172
515.91	15.188
516.11	15.211
516.31	15.235
516.51	15.257
516.71	15.283
516.91	15.320
517.11	15.358
517.31	15.377
517.51	15.392
517.71	15.415
517.90	15.429
518.10	15.434
518.30	15.439
518.50	15.428
518.70	15.438
518.90	15.439
519.10	15.440
519.30	15.443
519.50	15.459
519.69	15.472
519.89	15.479
520.09	15.489
520.29	15.513
520.49	15.533
520.69	15.583
520.89	15.609
521.09	15.639
521.29	15.665
521.48	15.687
521.68	15.705
521.88	15.727
522.08	15.750
522.28	15.782
522.48	15.800
522.68	15.821
522.88	15.837
523.07	15.870
523.27	15.903
523.47	15.933
523.67	15.958
523.87	15.992
524.07	16.024
524.27	16.056
524.47	16.069
524.66	16.090
524.86	16.104
525.06	16.106
525.26	16.110
525.46	16.112
525.66	16.119
525.85	16.126
526.05	16.128
526.25	16.143
526.45	16.160
526.65	16.203
526.85	16.265
527.05	16.358
527.24	16.467
527.44	16.530
527.64	16.595
527.84	16.647
528.04	16.663
528.24	16.648
528.43	16.631
528.63	16.613
528.83	16.594
529.03	16.572
529.23	16.543
529.43	16.515
529.62	16.497
529.82	16.467
530.02	16.436
530.22	16.431
530.42	16.465
530.62	16.505
530.81	16.556
531.01	16.602
531.21	16.652
531.41	16.703
531.61	16.761
531.80	16.823
532.00	16.866
532.20	16.895
532.40	16.902
532.60	16.910
532.79	16.902
532.99	16.895
533.19	16.912
533.39	16.900
533.59	16.901
533.78	16.886
533.98	16.872
534.18	16.873
534.38	16.881
534.58	16.908
534.77	16.939
534.97	16.991
535.17	17.056
535.37	17.080
535.57	17.142
535.76	17.173
535.96	17.202
536.16	17.217
536.36	17.229
536.56	17.237
536.75	17.245
536.95	17.239
537.15	17.237
537.35	17.225
537.54	17.242
537.74	17.261
537.94	17.289
538.14	17.318
538.34	17.356
538.53	17.416
538.73	17.453
538.93	17.483
539.13	17.542
539.32	17.599
539.52	17.657
539.72	17.716
539.92	17.770
540.11	17.812
540.31	17.831
540.51	17.839
540.71	17.814
540.90	17.794
541.10	17.782
541.30	17.762
541.50	17.753
541.69	17.744
541.89	17.733
542.09	17.720
542.29	17.714
542.48	17.710
542.68	17.721
542.88	17.744
543.08	17.787
543.27	17.827
543.47	17.870
543.67	17.895
543.87	17.929
544.06	17.954
544.26	17.978
544.46	18.004
544.65	18.038
544.85	18.051
545.05	18.075
545.25	18.094
545.44	18.118
545.64	18.145
545.84	18.186
546.04	18.210
546.23	18.226
546.43	18.227
546.63	18.226
546.82	18.228
547.02	18.250
547.22	18.269
547.42	18.287
547.61	18.306
547.81	18.330
548.01	18.325
548.20	18.330
548.40	18.362
548.60	18.401
548.79	18.422
548.99	18.451
549.19	18.471
549.39	18.476
549.58	18.489
549.78	18.499
549.98	18.511
550.17	18.539
550.37	18.578
550.57	18.613
550.76	18.624
550.96	18.674
551.16	18.714
551.35	18.741
551.55	18.767
551.75	18.797
551.94	18.825
552.14	18.820
552.34	18.825
552.53	18.843
552.73	18.834
552.93	18.849
553.13	18.855
553.32	18.865
553.52	18.888
553.72	18.908
553.91	18.925
554.11	18.934
554.31	18.973
554.50	18.990
554.70	19.011
554.89	19.032
555.09	19.065
555.29	19.067
555.48	19.091
555.68	19.116
555.88	19.148
556.07	19.159
556.27	19.195
556.47	19.224
556.66	19.271
556.86	19.283
557.06	19.313
557.25	19.331
557.45	19.355
557.65	19.369
557.84	19.359
558.04	19.387
558.23	19.388
558.43	19.402
558.63	19.425
558.82	19.425
559.02	19.440
559.22	19.451
559.41	19.454
559.61	19.482
559.81	19.511
560.00	19.555
560.20	19.561
560.39	19.598
560.59	19.607
560.79	19.601
560.98	19.623
561.18	19.651
561.37	19.678
561.57	19.713
561.77	19.731
561.96	19.744
562.16	19.768
562.36	19.800
562.55	19.837
562.75	19.858
562.94	19.890
563.14	19.908
563.34	19.921
563.53	19.940
563.73	19.971
563.92	20.000
564.12	20.017
564.32	20.028
564.51	20.036
564.71	20.045
564.90	20.062
565.10	20.072
565.29	20.116
565.49	20.119
565.69	20.139
565.88	20.130
566.08	20.137
566.27	20.121
566.47	20.120
566.67	20.136
566.86	20.148
567.06	20.175
567.25	20.205
567.45	20.197
567.64	20.216
567.84	20.237
568.04	20.266
568.23	20.286
568.43	20.348
568.62	20.376
568.82	20.401
569.01	20.414
569.21	20.410
569.41	20.429
569.60	20.469
569.80	20.507
569.99	20.525
570.19	20.563
570.38	20.575
570.58	20.589
570.77	20.623
570.97	20.631
571.17	20.645
571.36	20.671
571.56	20.665
571.75	20.661
571.95	20.653
572.14	20.654
572.34	20.660
572.53	20.694
572.73	20.709
572.92	20.702
573.12	20.726
573.31	20.754
573.51	20.761
573.70	20.787
573.90	20.805
574.10	20.848
574.29	20.881
574.49	20.893
574.68	20.896
574.88	20.895
575.07	20.916
575.27	20.922
575.46	20.914
575.66	20.952
575.85	20.971
576.05	20.990
576.24	20.987
576.44	20.982
576.63	21.004
576.83	21.016
577.02	21.037
577.22	21.057
577.41	21.072
577.61	21.097
577.80	21.110
578.00	21.116
578.19	21.140
578.39	21.151
578.58	21.166
578.78	21.189
578.97	21.199
579.17	21.213
579.36	21.229
579.56	21.275
579.75	21.289
579.95	21.298
580.14	21.313
580.34	21.322
580.53	21.358
580.73	21.374
580.92	21.368
581.12	21.381
581.31	21.409
581.51	21.430
581.70	21.429
581.89	21.444
582.09	21.452
582.28	21.486
582.48	21.503
582.67	21.521
582.87	21.538
583.06	21.559
583.26	21.565
583.45	21.589
583.65	21.592
583.84	21.603
584.04	21.629
584.23	21.670
584.43	21.661
584.62	21.675
584.81	21.682
585.01	21.697
585.20	21.699
585.40	21.742
585.59	21.753
585.79	21.785
585.98	21.813
586.18	21.826
586.37	21.808
586.56	21.832
586.76	21.849
586.95	21.866
587.15	21.903
587.34	21.922
587.54	21.937
587.73	21.947
587.92	21.972
588.12	21.965
588.31	21.988
588.51	22.022
588.70	22.061
588.90	22.087
589.09	22.112
589.28	22.102
589.48	22.106
589.67	22.115
589.87	22.126
590.06	22.130
590.25	22.156
590.45	22.183
590.64	22.187
590.84	22.190
591.03	22.202
591.23	22.204
591.42	22.242
591.61	22.268
591.81	22.284
592.00	22.313
592.20	22.333
592.39	22.323
592.58	22.330
592.78	22.349
592.97	22.361
593.17	22.387
593.36	22.404
593.55	22.404
593.75	22.429
593.94	22.442
594.13	22.454
594.33	22.458
594.52	22.482
594.72	22.504
594.91	22.508
595.10	22.536
595.30	22.544
595.49	22.570
595.68	22.612
595.88	22.642
596.07	22.647
596.27	22.645
596.46	22.640
596.65	22.631
596.85	22.622
597.04	22.638
597.23	22.641
597.43	22.640
597.62	22.659
597.81	22.643
598.01	22.645
598.20	22.670
598.40	22.711
598.59	22.729
598.78	22.785
598.98	22.823
599.17	22.857
599.36	22.857
599.56	22.900
599.75	22.866
599.94	22.909
600.14	22.914
600.33	22.948
600.52	22.941
600.72	22.982
600.91	22.994
601.10	22.997
601.30	22.998
601.49	23.026
601.68	23.034
601.88	23.090
602.07	23.101
602.26	23.136
602.46	23.135
602.65	23.146
602.84	23.158
603.04	23.178
603.23	23.198
603.42	23.228
603.62	23.247
603.81	23.244
604.00	23.239
604.20	23.211
604.39	23.203
604.58	23.200
604.77	23.196
604.97	23.200
605.16	23.203
605.35	23.221
605.55	23.208
605.74	23.195
605.93	23.231
606.13	23.269
606.32	23.321
606.51	23.350
606.70	23.397
606.90	23.438
607.09	23.464
607.28	23.483
607.48	23.508
607.67	23.536
607.86	23.590
608.05	23.587
608.25	23.582
608.44	23.592
608.63	23.601
608.83	23.580
609.02	23.571
609.21	23.561
609.40	23.554
609.60	23.534
609.79	23.544
609.98	23.534
610.17	23.531
610.37	23.526
610.56	23.526
610.75	23.540
610.95	23.547
611.14	23.563
611.33	23.592
611.52	23.610
611.72	23.653
611.91	23.677
612.10	23.685
612.29	23.715
612.49	23.743
612.68	23.765
612.87	23.758
613.06	23.790
613.26	23.817
613.45	23.839
613.64	23.858
613.83	23.821
614.03	23.829
614.22	23.845
614.41	23.862
614.60	23.878
614.79	23.881
614.99	23.888
615.18	23.881
615.37	23.903
615.56	23.898
615.76	23.919
615.95	23.956
616.14	23.964
616.33	24.009
616.53	24.002
616.72	24.022
616.91	24.043
617.10	24.075
617.29	24.102
617.49	24.105
617.68	24.126
617.87	24.130
618.06	24.136
618.25	24.132
618.45	24.123
618.64	24.137
618.83	24.152
619.02	24.181
619.21	24.209
619.41	24.224
619.60	24.247
619.79	24.221
619.98	24.242
620.17	24.270
620.37	24.279
620.56	24.296
620.75	24.307
620.94	24.307
621.13	24.306
621.33	24.291
621.52	24.287
621.71	24.298
621.90	24.355
622.09	24.326
622.28	24.314
622.48	24.340
622.67	24.350
622.86	24.346
623.05	24.373
623.24	24.366
623.44	24.385
623.63	24.400
623.82	24.425
624.01	24.425
624.20	24.462
624.39	24.505
624.59	24.519
624.78	24.551
624.97	24.606
625.16	24.608
625.35	24.654
625.54	24.650
625.73	24.668
625.93	24.641
626.12	24.658
626.31	24.677
626.50	24.665
626.69	24.674
626.88	24.656
627.07	24.640
627.27	24.646
627.46	24.625
627.65	24.649
627.84	24.653
628.03	24.674
628.22	24.674
628.41	24.690
628.61	24.722
628.80	24.744
628.99	24.754
629.18	24.753
629.37	24.786
629.56	24.811
629.75	24.817
629.94	24.860
630.14	24.888
630.33	24.932
630.52	24.947
630.71	24.944
630.90	24.976
631.09	24.987
631.28	25.037
631.47	25.037
631.66	25.055
631.86	25.070
632.05	25.035
632.24	25.032
632.43	25.023
632.62	25.030
632.81	25.036
633.00	25.040
633.19	25.060
633.38	25.032
633.57	25.022
633.77	25.004
633.96	25.037
634.15	25.081
634.34	25.092
634.53	25.096
634.72	25.074
634.91	25.095
635.10	25.084
635.29	25.094
635.48	25.136
635.67	25.153
635.86	25.196
636.05	25.224
636.25	25.221
636.44	25.260
636.63	25.295
636.82	25.360
637.01	25.370
637.20	25.378
637.39	25.405
637.58	25.426
637.77	25.454
637.96	25.497
638.15	25.465
638.34	25.490
638.53	25.520
638.72	25.510
638.91	25.498
639.10	25.516
639.30	25.534
639.49	25.558
639.68	25.560
639.87	25.565
640.06	25.537
640.25	25.576
640.44	25.578
640.63	25.523
640.82	25.533
641.01	25.576
641.20	25.584
641.39	25.582
641.58	25.584
641.77	25.613
641.96	25.632
642.15	25.664
642.34	25.664
642.53	25.679
642.72	25.718
642.91	25.691
643.10	25.688
643.29	25.706
643.48	25.745
643.67	25.706
643.86	25.725
644.05	25.740
644.24	25.741
644.43	25.758
644.62	25.769
644.81	25.776
645.00	25.839
645.19	25.830
645.38	25.834
645.57	25.828
645.76	25.850
645.95	25.821
646.14	25.846
646.33	25.854
646.52	25.839
646.71	25.876
646.90	25.899
647.09	25.898
647.28	25.892
647.47	25.906
647.66	25.930
647.85	25.986
648.04	26.050
648.23	26.035
648.42	26.047
648.61	26.075
648.80	26.037
648.99	26.038
649.18	26.076
649.37	26.114
649.56	26.127
649.75	26.143
649.94	26.121
650.13	26.113
650.32	26.130
650.51	26.133
650.70	26.141
650.89	26.193
651.08	26.198
651.27	26.194
651.46	26.198
651.65	26.203
651.83	26.196
652.02	26.218
652.21	26.175
652.40	26.171
652.59	26.200
652.78	26.195
652.97	26.185
653.16	26.205
653.35	26.192
653.54	26.192
653.73	26.205
653.92	26.214
654.11	26.195
654.30	26.266
654.49	26.275
654.68	26.250
654.86	26.271
655.05	26.303
655.24	26.302
655.43	26.317
655.62	26.356
655.81	26.377
656.00	26.379
656.19	26.438
656.38	26.428
656.57	26.480
656.76	26.499
656.95	26.543
657.13	26.532
657.32	26.563
657.51	26.586
657.70	26.613
657.89	26.620
658.08	26.666
658.27	26.658
658.46	26.657
658.65	26.627
658.84	26.625
659.02	26.619
659.21	26.637
659.40	26.654
659.59	26.666
659.78	26.654
659.97	26.667
660.16	26.662
660.35	26.669
660.54	26.698
660.72	26.741
660.91	26.786
661.10	26.778
661.29	26.795
661.48	26.784
661.67	26.812
661.86	26.840
662.05	26.842
662.23	26.859
662.42	26.881
662.61	26.884
662.80	26.875
662.99	26.896
663.18	26.926
663.37	26.908
663.56	26.930
663.74	26.916
663.93	26.892
664.12	26.903
664.31	26.882
664.50	26.889
664.69	26.890
664.87	26.897
665.06	26.909
665.25	26.918
665.44	26.962
665.63	26.953
665.82	26.974
666.01	26.991
666.19	27.007
666.38	27.027
666.57	27.023
666.76	27.025
666.95	27.007
667.14	26.989
667.32	26.996
667.51	26.982
667.70	27.012
667.89	26.991
668.08	27.002
668.26	27.000
668.45	27.020
668.64	27.037
668.83	27.076
669.02	27.118
669.21	27.128
669.39	27.145
669.58	27.137
669.77	27.137
669.96	27.181
670.15	27.226
670.33	27.223
670.52	27.215
670.71	27.241
670.90	27.216
671.09	27.242
671.27	27.260
671.46	27.272
671.65	27.309
671.84	27.319
672.03	27.327
672.21	27.306
672.40	27.314
672.59	27.295
672.78	27.297
672.96	27.330
673.15	27.324
673.34	27.322
673.53	27.323
673.72	27.322
673.90	27.334
674.09	27.342
674.28	27.391
674.47	27.438
674.65	27.515
674.84	27.517
675.03	27.512
675.22	27.535
675.41	27.577
675.59	27.607
675.78	27.604
675.97	27.617
676.16	27.601
676.34	27.584
676.53	27.578
676.72	27.554
676.91	27.564
677.09	27.571
677.28	27.566
677.47	27.586
677.66	27.564
677.84	27.595
678.03	27.608
678.22	27.638
678.41	27.680
678.59	27.695
678.78	27.718
678.97	27.733
679.15	27.748
679.34	27.775
679.53	27.736
679.72	27.751
679.90	27.777
680.09	27.758
680.28	27.763
680.47	27.754
680.65	27.754
680.84	27.747
681.03	27.777
681.21	27.809
681.40	27.787
681.59	27.825
681.78	27.864
681.96	27.833
682.15	27.844
682.34	27.850
682.52	27.835
682.71	27.817
682.90	27.831
683.08	27.828
683.27	27.805
683.46	27.838
683.65	27.845
683.83	27.820
684.02	27.824
684.21	27.857
684.39	27.834
684.58	27.852
684.77	27.911
684.95	27.884
685.14	27.891
685.33	27.910
685.51	27.922
685.70	27.890
685.89	27.877
686.07	27.930
686.26	27.941
686.45	27.991
686.63	27.980
686.82	27.979
687.01	28.018
687.20	28.025
687.38	28.016
687.57	28.003
687.75	28.025
687.94	28.057
688.13	28.040
688.31	28.050
688.50	28.079
688.69	28.089
688.87	28.114
689.06	28.098
689.25	28.098
689.43	28.108
689.62	28.144
689.81	28.195
689.99	28.223
690.18	28.232
690.37	28.215
690.55	28.184
690.74	28.220
690.93	28.200
691.11	28.242
691.30	28.255
691.48	28.295
691.67	28.303
691.86	28.282
692.04	28.235
692.23	28.272
692.42	28.308
692.60	28.352
692.79	28.340
692.97	28.363
693.16	28.409
693.35	28.427
693.53	28.413
693.72	28.393
693.90	28.401
694.09	28.440
694.28	28.428
694.46	28.456
694.65	28.414
694.83	28.428
695.02	28.433
695.21	28.429
695.39	28.452
695.58	28.454
695.76	28.479
695.95	28.470
696.14	28.505
696.32	28.544
696.51	28.522
696.69	28.609
696.88	28.677
697.07	28.710
697.25	28.689
697.44	28.677
697.62	28.735
697.81	28.729
697.99	28.711
698.18	28.705
698.37	28.666
698.55	28.651
698.74	28.613
698.92	28.572
699.11	28.528
699.29	28.533
699.48	28.519
699.67	28.505
699.85	28.485
700.04	28.513
700.22	28.487
700.41	28.538
700.59	28.570
700.78	28.564
700.96	28.554
701.15	28.592
701.34	28.593
701.52	28.606
701.71	28.586
701.89	28.632
702.08	28.631
702.26	28.676
702.45	28.635
702.63	28.662
702.82	28.696
703.00	28.740
703.19	28.733
703.38	28.746
703.56	28.747
703.75	28.770
703.93	28.789
704.12	28.814
704.30	28.816
704.49	28.832
704.67	28.821
704.86	28.841
705.04	28.848
705.23	28.898
705.41	28.909
705.60	28.937
705.78	28.919
705.97	28.905
706.15	28.921
706.34	28.959
706.52	28.986
706.71	29.063
706.89	29.054
707.08	29.040
707.26	29.004
707.45	28.994
707.63	29.003
707.82	29.034
708.00	29.034
708.19	29.011
708.37	29.023
708.56	29.035
708.74	29.021
708.93	29.033
709.11	29.063
709.30	29.097
709.48	29.114
709.67	29.122
709.85	29.088
710.04	29.129
710.22	29.160
710.41	29.151
710.59	29.127
710.77	29.089
710.96	29.066
711.14	29.071
711.33	29.059
711.51	29.047
711.70	29.002
711.88	29.020
712.07	29.023
712.25	29.006
712.44	28.990
712.62	29.035
712.80	29.080
712.99	29.082
713.17	29.053
713.36	29.032
713.54	29.110
713.73	29.168
713.91	29.191
714.10	29.156
714.28	29.175
714.46	29.199
714.65	29.187
714.83	29.182
715.02	29.270
715.20	29.327
715.39	29.385
715.57	29.335
715.75	29.323
715.94	29.296
716.12	29.315
716.31	29.311
716.49	29.298
716.68	29.255
716.86	29.215
717.04	29.192
717.23	29.244
717.41	29.303
717.60	29.340
717.78	29.391
717.96	29.402
718.15	29.416
718.33	29.418
718.52	29.445
718.70	29.549
718.88	29.578
719.07	29.574
719.25	29.529
719.44	29.469
719.62	29.478
719.80	29.478
719.99	29.543
720.17	29.527
720.36	29.535
720.54	29.568
720.72	29.548
720.91	29.527
721.09	29.464
721.27	29.433
721.46	29.459
721.64	29.426
721.83	29.420
722.01	29.457
722.19	29.556
722.38	29.575
722.56	29.570
722.74	29.557
722.93	29.595
723.11	29.635
723.30	29.650
723.48	29.688
723.66	29.745
723.85	29.826
724.03	29.823
724.21	29.779
724.40	29.805
724.58	29.794
724.76	29.784
724.95	29.758
725.13	29.874
725.31	29.866
725.50	29.860
725.68	29.838
725.86	29.774
726.05	29.782
726.23	29.770
726.41	29.775
726.60	29.764
726.78	29.797
726.96	29.798
727.15	29.718
727.33	29.786
727.51	29.736
727.70	29.744
727.88	29.743
728.06	29.700
728.25	29.708
728.43	29.710
728.61	29.774
728.80	29.812
728.98	29.871
729.16	29.917
729.34	29.891
729.53	29.915
729.71	29.911
729.89	29.938
730.08	29.925
730.26	29.915
730.44	29.884
730.63	29.883
730.81	29.859
730.99	29.932
731.17	29.921
731.36	29.917
731.54	29.928
731.72	29.930
731.91	29.946
732.09	30.010
732.27	30.010
732.45	30.059
732.64	30.052
732.82	30.053
733.00	30.002
733.19	30.024
733.37	30.013
733.55	30.036
733.73	30.054
733.92	30.074
734.10	30.043
734.28	30.093
734.46	30.089
734.65	30.080
734.83	30.080
735.01	30.073
735.19	29.996
735.38	30.044
735.56	30.071
735.74	30.142
735.92	30.110
736.11	30.130
736.29	30.148
736.47	30.182
736.65	30.251
736.84	30.292
737.02	30.313
737.20	30.391
737.38	30.410
737.57	30.412
737.75	30.337
737.93	30.376
738.11	30.379
738.30	30.327
738.48	30.271
738.66	30.204
738.84	30.240
739.02	30.165
739.21	30.181
739.39	30.162
739.57	30.148
739.75	30.118
739.93	30.118
740.12	30.129
740.30	30.200
740.48	30.235
740.66	30.283
740.85	30.242
741.03	30.300
741.21	30.276
741.39	30.295
741.57	30.292
741.76	30.341
741.94	30.349
742.12	30.379
742.30	30.359
742.48	30.426
742.66	30.427
742.85	30.439
743.03	30.521
743.21	30.583
743.39	30.601
743.57	30.622
743.76	30.655
743.94	30.649
744.12	30.647
744.30	30.683
744.48	30.658
744.66	30.628
744.85	30.616
745.03	30.558
745.21	30.574
745.39	30.566
745.57	30.608
745.75	30.618
745.94	30.578
746.12	30.548
746.30	30.560
746.48	30.575
746.66	30.629
746.84	30.625
747.02	30.600
747.21	30.533
747.39	30.508
747.57	30.430
747.75	30.404
747.93	30.494
748.11	30.606
748.29	30.604
748.48	30.564
748.66	30.538
748.84	30.603
749.02	30.687
749.20	30.759
749.38	30.742
749.56	30.790
749.75	30.865
749.93	30.787
750.11	30.728
750.29	30.700
750.47	30.798
750.65	30.797
750.83	30.725
751.01	30.661
751.19	30.612
751.38	30.626
751.56	30.613
751.74	30.562
751.92	30.618
752.10	30.618
752.28	30.594
752.46	30.567
752.64	30.531
752.82	30.623
753.00	30.646
753.19	30.646
753.37	30.682
753.55	30.675
753.73	30.662
753.91	30.625
754.09	30.585
754.27	30.633
754.45	30.592
754.63	30.681
754.81	30.574
754.99	30.594
755.17	30.633
755.36	30.649
755.54	30.702
755.72	30.796
755.90	30.870
756.08	30.953
756.26	30.979
756.44	30.986
756.62	30.943
756.80	31.067
756.98	31.080
757.16	30.992
757.34	30.991
757.52	31.035
757.70	30.978
757.88	30.932
758.06	30.885
758.24	30.893
758.42	30.896
758.61	30.931
758.79	30.864
758.97	30.921
759.15	31.023
759.33	31.010
759.51	30.969
759.69	31.007
759.87	31.058
760.05	31.071
760.23	31.048
760.41	31.108
760.59	31.083
760.77	31.149
760.95	31.108
761.13	31.062
761.31	31.127
761.49	31.155
761.67	31.159
761.85	31.161
762.03	31.217
762.21	31.267
762.39	31.231
762.57	31.265
762.75	31.218
762.93	31.199
763.11	31.159
763.29	31.106
763.47	31.035
763.65	30.997
763.83	30.899
764.01	30.886
764.19	30.860
764.37	30.866
764.55	30.822
764.73	30.842
764.91	30.820
765.09	30.849
765.27	30.843
765.45	30.860
765.63	30.889
765.81	30.950
765.99	30.942
766.17	30.903
766.35	30.907
766.53	30.931
766.71	30.928
766.89	31.006
767.07	31.041
767.25	31.085
767.43	31.098
767.61	31.148
767.78	31.212
767.96	31.201
768.14	31.266
768.32	31.316
768.50	31.384
768.68	31.402
768.86	31.347
769.04	31.315
769.22	31.292
769.40	31.349
769.58	31.210
769.76	31.187
769.94	31.203
770.12	31.204
770.30	31.168
770.48	31.102
770.66	31.085
770.84	31.062
771.01	31.139
771.19	31.119
771.37	31.163
771.55	31.318
771.73	31.370
771.91	31.431
772.09	31.441
772.27	31.410
772.45	31.460
772.63	31.496
772.81	31.513
772.99	31.402
773.16	31.425
773.34	31.403
773.52	31.390
773.70	31.306
773.88	31.362
774.06	31.438
774.24	31.402
774.42	31.389
774.60	31.385
774.78	31.435
774.95	31.561
775.13	31.667
775.31	31.650
775.49	31.677
775.67	31.764
775.85	31.728
776.03	31.749
776.21	31.875
776.38	31.916
776.56	31.959
776.74	32.021
776.92	32.045
777.10	31.943
777.28	32.002
777.46	31.988
777.64	32.045
777.81	31.966
777.99	31.938
778.17	31.876
778.35	31.844
778.53	31.809
778.71	31.800
778.89	31.784
779.06	31.887
779.24	31.808
779.42	31.804
779.60	31.667
779.78	31.729
779.96	31.732
780.13	31.750
780.31	31.833
780.49	31.864
780.67	31.842
780.85	31.876
781.03	31.825
781.20	31.829
781.38	31.868
781.56	31.917
781.74	31.985
781.92	31.934
782.10	31.921
782.27	31.922
782.45	31.887
782.63	31.844
782.81	31.856
782.99	31.916
783.17	32.028
783.34	31.952
783.52	32.015
783.70	32.008
783.88	32.042
784.06	32.087
784.23	32.049
784.41	32.027
784.59	32.073
784.77	31.934
784.95	31.951
785.12	31.843
785.30	31.857
785.48	31.827
785.66	31.724
785.83	31.785
786.01	31.792
786.19	31.788
786.37	31.880
786.55	31.822
786.72	31.921
786.90	31.953
787.08	32.059
787.26	32.105
787.43	32.198
787.61	32.301
787.79	32.205
787.97	32.204
788.15	32.174
788.32	32.077
788.50	32.133
788.68	32.103
788.86	31.981
789.03	31.973
789.21	32.009
789.39	31.861
789.57	31.802
789.74	31.811
789.92	31.778
790.10	31.784
790.28	31.853
790.45	31.947
790.63	31.965
790.81	32.037
790.99	31.963
791.16	31.877
791.34	32.003
791.52	31.917
791.69	31.919
791.87	31.906
792.05	31.943
792.23	31.975
792.40	31.842
792.58	31.879
792.76	31.871
792.94	31.934
793.11	32.059
793.29	31.991
793.47	32.127
793.64	32.269
793.82	32.491
794.00	32.506
794.18	32.396
794.35	32.506
794.53	32.310
794.71	32.307
794.88	32.308
795.06	32.274
795.24	32.351
795.41	32.317
795.59	32.292
795.77	32.160
795.94	32.025
796.12	32.138
796.30	32.100
796.48	32.202
796.65	32.236
796.83	32.185
797.01	32.102
797.18	32.083
797.36	32.078
797.54	31.999
797.71	31.994
797.89	32.123
798.07	32.057
798.24	32.095
798.42	32.069
798.60	32.127
798.77	32.241
798.95	32.285
799.13	32.249
799.30	32.270
799.48	32.306
799.66	32.233
799.83	32.352
800.01	32.389
800.18	32.389
800.36	32.432
800.54	32.325
800.71	32.217
800.89	32.207
801.07	32.208
801.24	32.336
801.42	32.364
801.60	32.476
801.77	32.302
801.95	32.261
802.12	32.177
802.30	32.163
802.48	32.228
802.65	32.290
802.83	32.357
803.01	32.507
803.18	32.296
803.36	32.297
803.53	32.263
803.71	32.313
803.89	32.290
804.06	32.337
804.24	32.430
804.41	32.397
804.59	32.412
804.77	32.507
804.94	32.489
805.12	32.750
805.29	32.853
805.47	32.846
805.65	32.848
805.82	32.928
806.00	32.876
806.17	32.764
806.35	32.810
806.53	32.803
806.70	32.745
806.88	32.647
807.05	32.455
807.23	32.271
807.40	32.315
807.58	32.272
807.76	32.309
807.93	32.323
808.11	32.317
808.28	32.329
808.46	32.374
808.63	32.285
808.81	32.253
808.99	32.290
809.16	32.441
809.34	32.378
809.51	32.434
809.69	32.396
809.86	32.349
810.04	32.447
810.21	32.419
810.39	32.429
810.57	32.485
810.74	32.558
810.92	32.499
811.09	32.330
811.27	32.310
811.44	32.411
811.62	32.383
811.79	32.527
811.97	32.536
812.14	32.459
812.32	32.527
812.49	32.479
812.67	32.455
812.84	32.550
813.02	32.749
813.19	32.770
813.37	32.638
813.55	32.638
813.72	32.502
813.90	32.634
814.07	32.727
814.25	32.696
814.42	32.944
814.60	32.962
814.77	32.858
814.95	32.798
815.12	32.811
815.30	32.770
815.47	32.854
815.65	32.931
815.82	32.937
816.00	32.946
816.17	32.935
816.35	32.638
816.52	32.775
816.69	33.014
816.87	33.032
817.04	32.960
817.22	32.958
817.39	32.998
817.57	32.954
817.74	32.860
817.92	32.959
818.09	32.776
818.27	32.844
818.44	32.899
818.62	32.778
818.79	32.769
818.97	33.028
819.14	33.087
819.32	33.080
819.49	33.147
819.66	33.153
819.84	33.034
820.01	33.174
820.19	33.098
820.36	32.940
820.54	33.000
820.71	32.985
820.89	32.964
821.06	33.065
821.23	33.111
821.41	33.022
821.58	32.902
821.76	32.803
821.93	32.629
822.11	32.539
822.28	32.430
822.45	32.266
822.63	32.198
822.80	32.117
822.98	32.046
823.15	31.983
823.33	31.943
823.50	31.902
823.67	31.867
823.85	31.886
824.02	31.896
824.20	31.944
824.37	32.071
824.54	32.149
824.72	32.230
824.89	32.314
825.07	32.372
825.24	32.465
825.41	32.571
825.59	32.668
825.76	32.721
825.94	32.831
826.11	32.890
826.28	32.905
826.46	32.958
826.63	33.002
826.80	32.997
826.98	32.964
827.15	32.915
827.33	32.858
827.50	32.789
827.67	32.764
827.85	32.685
828.02	32.672
828.19	32.665
828.37	32.612
828.54	32.591
828.72	32.614
828.89	32.672
829.06	32.699
829.24	32.767
829.41	32.835
829.58	32.852
829.76	32.906
829.93	32.924
830.10	33.005
830.28	33.045
830.45	33.140
830.62	33.165
830.80	33.233
830.97	33.247
831.14	33.272
831.32	33.309
831.49	33.365
831.66	33.419
831.84	33.458
832.01	33.464
832.18	33.575
832.36	33.557
832.53	33.553
832.70	33.541
832.88	33.575
833.05	33.580
833.22	33.610
833.40	33.557
833.57	33.477
833.74	33.370
833.91	33.279
834.09	33.193
834.26	33.094
834.43	33.033
834.61	32.981
834.78	32.886
834.95	32.822
835.13	32.727
835.30	32.683
835.47	32.666
835.64	32.657
835.82	32.704
835.99	32.673
836.16	32.803
836.34	32.874
836.51	32.981
836.68	33.030
836.85	32.949
837.03	33.082
837.20	33.163
837.37	33.135
837.54	33.260
837.72	33.171
837.89	33.183
838.06	33.095
838.24	32.960
838.41	32.827
838.58	32.754
838.75	32.912
838.93	33.030
839.10	33.043
839.27	33.296
839.44	33.210
839.62	33.378
839.79	33.471
839.96	33.442
840.13	33.466
840.31	33.482
840.48	33.559
840.65	33.501
840.82	33.347
840.99	33.401
841.17	33.314
841.34	33.467
841.51	33.401
841.68	33.450
841.86	33.473
842.03	33.597
842.20	33.426
842.37	33.563
842.55	33.590
842.72	33.526
842.89	33.328
843.06	33.259
843.23	32.933
843.41	32.900
843.58	32.932
843.75	33.040
843.92	32.944
844.09	32.903
844.27	32.781
844.44	32.968
844.61	33.091
844.78	33.249
844.95	33.136
845.13	33.554
845.30	33.634
845.47	33.497
845.64	33.782
845.81	33.995
845.98	34.145
846.16	34.237
846.33	34.348
846.50	34.288
846.67	34.231
846.84	34.467
847.02	34.439
847.19	34.521
847.36	34.392
847.53	33.891
847.70	33.905
847.87	34.392
848.04	34.405
848.22	34.285
848.39	34.767
848.56	35.169
848.73	35.061
848.90	34.726
849.07	34.672
849.25	34.666
849.42	34.550
849.59	34.205
849.76	33.890
849.93	34.258
850.10	34.009
850.27	33.467
850.45	33.465
850.62	33.695
850.79	34.156
850.96	33.722
851.13	33.989
851.30	33.977
851.47	34.073
851.64	34.084
851.82	33.494
851.99	33.635
852.16	34.207
852.33	33.966
852.50	34.062
852.67	33.874
852.84	33.884
853.01	33.709
853.18	33.859
853.35	33.970
853.53	33.846
853.70	34.235
853.87	34.507
854.04	34.442
854.21	34.481
854.38	34.152
854.55	33.849
854.72	34.025
854.89	34.226
855.06	34.384
855.23	34.509
855.41	34.396
855.58	34.380
855.75	34.469
855.92	34.217
856.09	34.367
856.26	34.519
856.43	34.483
856.60	34.402
856.77	34.170
856.94	33.978
857.11	33.698
857.28	33.820
857.45	33.653
857.62	33.152
857.80	32.747
857.97	32.502
858.14	32.403
858.31	32.854
858.48	33.451
858.65	33.734
858.82	33.896
858.99	33.662
859.16	33.625
859.33	33.702
859.50	33.778
859.67	34.187
859.84	34.126
860.01	34.165
860.18	34.036
860.35	33.657
860.52	33.492
860.69	33.423
860.86	33.694
861.03	33.362
861.20	33.015
861.37	33.329
861.54	33.433
861.71	33.032
861.88	32.923
862.05	33.135
862.22	33.204
862.39	33.189
862.56	32.964
862.73	33.182
862.90	33.478
863.07	33.614
863.24	33.226
863.41	32.893
863.58	33.318
863.75	33.270
863.92	32.964
864.09	32.944
864.26	33.027
864.43	33.155
864.60	32.903
864.77	32.744
864.94	33.129
865.11	33.354
865.28	33.545
865.45	33.706
865.62	33.809
865.79	33.961
865.96	34.027
866.13	34.097
866.30	34.276
866.47	34.048
866.64	34.097
866.81	33.843
866.98	34.128
867.15	34.078
867.32	33.839
867.49	34.089
867.66	34.093
867.82	33.729
867.99	33.512
868.16	33.601
868.33	33.816
868.50	34.048
868.67	34.471
868.84	34.470
869.01	34.633
869.18	34.916
869.35	34.883
869.52	35.052
869.69	35.324
869.86	35.602
870.03	35.541
870.19	35.571
870.36	35.485
870.53	34.977
870.70	34.728
870.87	34.828
871.04	34.446
871.21	34.281
871.38	34.408
871.55	34.132
871.72	34.097
871.89	33.760
872.05	33.649
872.22	33.382
872.39	33.244
872.56	33.353
872.73	32.967
872.90	33.277
873.07	33.240
873.24	33.151
873.41	33.475
873.57	33.364
873.74	33.673
873.91	33.732
874.08	34.066
874.25	34.391
874.42	34.212
874.59	34.546
874.76	34.282
874.92	34.586
875.09	34.601
875.26	34.628
875.43	34.388
875.60	34.226
875.77	34.328
875.94	34.444
876.11	34.624
876.27	34.767
876.44	34.496
876.61	34.733
876.78	34.532
876.95	34.407
877.12	34.326
877.28	34.269
877.45	34.396
877.62	34.215
877.79	33.999
877.96	33.806
878.13	33.710
878.29	34.020
878.46	33.983
878.63	34.051
878.80	33.932
878.97	33.965
879.14	34.234
879.30	34.217
879.47	34.485
879.64	34.612
879.81	34.650
879.98	34.910
880.14	34.880
880.31	34.956
880.48	35.025
880.65	35.234
880.82	35.195
880.98	34.990
881.15	34.826
881.32	34.518
881.49	34.275
881.66	34.093
881.82	33.854
881.99	33.715
882.16	33.595
882.33	33.500
882.50	33.368
882.66	33.292
882.83	33.241
883.00	33.192
883.17	33.229
883.33	33.280
883.50	33.348
883.67	33.453
883.84	33.535
884.01	33.644
884.17	33.670
884.34	33.701
884.51	33.766
884.68	33.818
884.84	33.867
885.01	33.910
885.18	33.883
885.35	33.921
885.51	33.933
885.68	33.973
885.85	33.922
886.02	34.024
886.18	34.155
886.35	34.144
886.52	34.158
886.69	34.196
886.85	34.286
887.02	34.323
887.19	34.097
887.35	34.268
887.52	34.225
887.69	34.500
887.86	34.617
888.02	34.762
888.19	34.699
888.36	34.198
888.53	37.977
888.69	35.428
888.86	36.592
889.03	33.364
>>>>>End Spectral Data<<<<<
