OOIBase32 Version 2.0.6.5 Data File
++++++++++++++++++++++++++++++++++++
Date: 11-17-2016, 11:09:30
User: Valued Ocean Optics Customer
Spectrometer Serial Number: USB4C01507
Spectrometer Channel: Master
Integration Time (msec): 49
Spectra Averaged: 25
Boxcar Smoothing: 5
Correct for Electrical Dark: Enabled
Time Normalized: Disabled
Dual-beam Reference: Disabled
Reference Channel: Master
Temperature: Not acquired
Spectrometer Type: S4000
ADC Type: USB4000
Number of Pixels in File: 3648
Graph Title: 
>>>>>Begin Spectral Data<<<<<
178.53	1610.590
178.74	2264.575
178.96	46.703
179.18	62.117
179.39	882.998
179.61	-40.477
179.82	24.864
180.04	-47.754
180.25	136.346
180.47	25.047
180.69	80.291
180.90	819.799
181.12	-259.506
181.33	199.730
181.55	-29.199
181.76	-5850.509
181.98	71.388
182.20	-79.489
182.41	10.428
182.63	70.325
182.84	26.728
183.06	22.099
183.27	18.297
183.49	23.723
183.71	22.452
183.92	17.177
184.14	20.627
184.35	31.246
184.57	17.996
184.78	11.713
185.00	16.126
185.21	16.190
185.43	27.403
185.65	29.637
185.86	25.553
186.08	31.526
186.29	31.234
186.51	28.376
186.72	18.976
186.94	25.081
187.15	27.252
187.37	22.957
187.58	14.835
187.80	13.105
188.02	14.252
188.23	16.264
188.45	5.918
188.66	5.313
188.88	10.185
189.09	22.982
189.31	28.555
189.52	30.482
189.74	27.074
189.95	40.417
190.17	38.647
190.38	42.154
190.60	43.133
190.82	53.149
191.03	46.808
191.25	40.946
191.46	37.377
191.68	31.388
191.89	27.007
192.11	32.639
192.32	22.799
192.54	18.956
192.75	24.696
192.97	25.821
193.18	25.155
193.40	36.859
193.61	40.564
193.83	41.388
194.04	35.705
194.26	38.819
194.48	37.793
194.69	44.848
194.91	40.064
195.12	41.936
195.34	41.797
195.55	40.027
195.77	30.375
195.98	30.384
196.20	24.896
196.41	25.414
196.63	22.358
196.84	22.460
197.06	20.474
197.27	31.357
197.49	26.769
197.70	22.186
197.92	23.116
198.13	31.133
198.35	26.920
198.56	26.357
198.78	24.980
198.99	32.435
199.21	28.393
199.42	21.034
199.64	16.415
199.85	12.478
200.07	14.992
200.28	21.845
200.50	18.475
200.71	20.926
200.93	23.953
201.14	30.664
201.36	25.188
201.57	26.796
201.79	31.273
202.00	31.391
202.22	33.162
202.43	34.366
202.65	30.918
202.86	30.907
203.08	30.998
203.29	29.892
203.51	26.706
203.72	29.262
203.94	30.456
204.15	26.991
204.37	28.045
204.58	28.311
204.80	27.938
205.01	29.111
205.22	26.854
205.44	25.851
205.65	25.134
205.87	24.342
206.08	23.648
206.30	25.036
206.51	25.909
206.73	24.017
206.94	20.516
207.16	19.682
207.37	17.122
207.59	16.448
207.80	18.248
208.02	18.665
208.23	21.610
208.45	20.143
208.66	14.124
208.88	11.205
209.09	10.959
209.30	16.018
209.52	12.862
209.73	16.254
209.95	20.604
210.16	17.078
210.38	18.442
210.59	14.665
210.81	10.782
211.02	10.545
211.24	11.603
211.45	9.765
211.66	10.364
211.88	12.966
212.09	11.239
212.31	9.453
212.52	12.183
212.74	8.535
212.95	8.778
213.17	11.368
213.38	14.029
213.60	17.251
213.81	19.510
214.02	18.162
214.24	16.152
214.45	14.199
214.67	13.089
214.88	11.051
215.10	13.249
215.31	13.229
215.53	14.413
215.74	14.837
215.95	14.534
216.17	11.725
216.38	10.663
216.60	10.774
216.81	12.164
217.03	11.861
217.24	12.090
217.45	14.146
217.67	13.991
217.88	13.828
218.10	13.143
218.31	12.159
218.53	12.721
218.74	11.429
218.95	8.135
219.17	5.965
219.38	6.737
219.60	9.875
219.81	7.551
220.03	7.727
220.24	6.636
220.45	6.423
220.67	6.044
220.88	6.093
221.10	6.734
221.31	8.345
221.53	8.197
221.74	7.221
221.95	6.227
222.17	4.932
222.38	4.345
222.60	4.597
222.81	3.701
223.02	3.148
223.24	3.370
223.45	3.435
223.67	2.555
223.88	3.179
224.09	3.992
224.31	4.134
224.52	5.759
224.74	4.742
224.95	5.045
225.16	5.451
225.38	5.321
225.59	5.230
225.81	4.723
226.02	4.969
226.23	4.324
226.45	3.796
226.66	2.973
226.88	2.647
227.09	3.407
227.30	2.939
227.52	2.998
227.73	2.943
227.95	2.881
228.16	2.928
228.37	2.844
228.59	2.944
228.80	2.956
229.02	3.056
229.23	3.107
229.44	2.964
229.66	3.012
229.87	3.038
230.08	3.023
230.30	3.040
230.51	3.085
230.73	3.242
230.94	3.159
231.15	3.170
231.37	3.166
231.58	2.944
231.80	2.933
232.01	3.054
232.22	3.004
232.44	3.307
232.65	3.315
232.86	3.064
233.08	2.995
233.29	3.146
233.51	3.217
233.72	3.196
233.93	3.189
234.15	3.259
234.36	3.126
234.57	3.064
234.79	3.063
235.00	3.069
235.21	3.452
235.43	3.710
235.64	3.577
235.86	3.587
236.07	3.374
236.28	3.249
236.50	3.271
236.71	3.498
236.92	3.610
237.14	3.718
237.35	3.603
237.56	3.449
237.78	3.185
237.99	3.195
238.20	3.324
238.42	3.817
238.63	3.761
238.84	4.153
239.06	3.929
239.27	3.601
239.48	3.237
239.70	3.503
239.91	3.274
240.13	3.349
240.34	3.275
240.55	3.022
240.77	2.855
240.98	2.875
241.19	2.780
241.41	2.746
241.62	2.770
241.83	2.782
242.05	2.711
242.26	2.715
242.47	2.573
242.69	2.617
242.90	2.685
243.11	2.684
243.33	2.665
243.54	2.605
243.75	2.631
243.97	2.628
244.18	2.767
244.39	2.734
244.61	2.589
244.82	2.749
245.03	2.542
245.24	2.457
245.46	2.519
245.67	2.645
245.88	2.654
246.10	2.579
246.31	2.563
246.52	2.487
246.74	2.467
246.95	2.505
247.16	2.467
247.38	2.511
247.59	2.512
247.80	2.518
248.02	2.508
248.23	2.497
248.44	2.512
248.66	2.506
248.87	2.504
249.08	2.525
249.29	2.597
249.51	2.718
249.72	2.820
249.93	2.869
250.15	2.793
250.36	2.793
250.57	2.693
250.79	2.834
251.00	2.866
251.21	2.887
251.42	2.933
251.64	2.798
251.85	2.805
252.06	2.809
252.28	2.717
252.49	2.761
252.70	2.741
252.91	2.835
253.13	2.815
253.34	2.912
253.55	3.051
253.77	3.109
253.98	3.378
254.19	3.185
254.40	3.143
254.62	3.368
254.83	3.212
255.04	3.186
255.26	3.116
255.47	3.026
255.68	2.882
255.89	2.753
256.11	2.643
256.32	2.382
256.53	2.508
256.75	2.548
256.96	2.498
257.17	2.662
257.38	2.807
257.60	2.806
257.81	2.765
258.02	2.688
258.23	2.596
258.45	2.510
258.66	2.538
258.87	2.475
259.09	2.316
259.30	2.327
259.51	2.262
259.72	2.257
259.94	2.183
260.15	2.167
260.36	2.220
260.57	2.212
260.79	2.234
261.00	2.201
261.21	2.217
261.42	2.342
261.64	2.314
261.85	2.374
262.06	2.328
262.27	2.503
262.49	2.583
262.70	2.649
262.91	2.742
263.12	2.724
263.34	2.850
263.55	2.782
263.76	2.726
263.97	2.878
264.19	2.925
264.40	2.893
264.61	2.856
264.82	2.799
265.04	2.667
265.25	2.590
265.46	2.605
265.67	2.631
265.88	2.659
266.10	2.606
266.31	2.510
266.52	2.492
266.73	2.595
266.95	2.571
267.16	2.541
267.37	2.491
267.58	2.463
267.80	2.535
268.01	2.430
268.22	2.454
268.43	2.569
268.64	2.654
268.86	2.611
269.07	2.459
269.28	2.355
269.49	2.417
269.71	2.472
269.92	2.390
270.13	2.389
270.34	2.377
270.55	2.344
270.77	2.366
270.98	2.318
271.19	2.410
271.40	2.415
271.61	2.476
271.83	2.402
272.04	2.328
272.25	2.487
272.46	2.413
272.68	2.431
272.89	2.459
273.10	2.370
273.31	2.318
273.52	2.250
273.74	2.262
273.95	2.200
274.16	2.332
274.37	2.361
274.58	2.304
274.80	2.337
275.01	2.395
275.22	2.470
275.43	2.556
275.64	2.548
275.86	2.609
276.07	2.608
276.28	2.785
276.49	2.715
276.70	2.757
276.91	2.799
277.13	2.794
277.34	2.801
277.55	2.839
277.76	2.656
277.97	2.742
278.19	2.708
278.40	2.752
278.61	2.606
278.82	2.635
279.03	2.610
279.24	2.431
279.46	2.412
279.67	2.345
279.88	2.173
280.09	2.312
280.30	2.236
280.52	2.347
280.73	2.362
280.94	2.424
281.15	2.322
281.36	2.331
281.57	2.486
281.79	2.464
282.00	2.462
282.21	2.441
282.42	2.400
282.63	2.484
282.84	2.303
283.06	2.298
283.27	2.225
283.48	2.256
283.69	2.144
283.90	2.072
284.11	2.029
284.32	2.045
284.54	2.058
284.75	2.036
284.96	1.896
285.17	2.016
285.38	1.954
285.59	2.041
285.81	2.039
286.02	2.133
286.23	2.145
286.44	2.241
286.65	2.305
286.86	2.329
287.07	2.301
287.29	2.413
287.50	2.369
287.71	2.464
287.92	2.404
288.13	2.422
288.34	2.389
288.55	2.422
288.77	2.388
288.98	2.266
289.19	2.277
289.40	2.347
289.61	2.327
289.82	2.339
290.03	2.217
290.24	2.256
290.46	2.231
290.67	2.308
290.88	2.324
291.09	2.306
291.30	2.331
291.51	2.360
291.72	2.397
291.93	2.494
292.15	2.462
292.36	2.657
292.57	2.613
292.78	2.588
292.99	2.429
293.20	2.465
293.41	2.379
293.62	2.423
293.84	2.479
294.05	2.371
294.26	2.290
294.47	2.309
294.68	2.175
294.89	2.284
295.10	2.312
295.31	2.389
295.52	2.326
295.73	2.407
295.95	2.439
296.16	2.487
296.37	2.567
296.58	2.639
296.79	2.602
297.00	2.698
297.21	2.613
297.42	2.585
297.63	2.584
297.84	2.606
298.06	2.559
298.27	2.560
298.48	2.555
298.69	2.487
298.90	2.393
299.11	2.463
299.32	2.398
299.53	2.449
299.74	2.526
299.95	2.535
300.16	2.438
300.38	2.517
300.59	2.446
300.80	2.352
301.01	2.327
301.22	2.368
301.43	2.297
301.64	2.271
301.85	2.178
302.06	2.204
302.27	2.204
302.48	2.296
302.69	2.269
302.91	2.292
303.12	2.335
303.33	2.425
303.54	2.447
303.75	2.463
303.96	2.491
304.17	2.550
304.38	2.528
304.59	2.600
304.80	2.662
305.01	2.652
305.22	2.663
305.43	2.648
305.64	2.655
305.85	2.629
306.06	2.667
306.28	2.724
306.49	2.781
306.70	2.759
306.91	2.615
307.12	2.560
307.33	2.462
307.54	2.521
307.75	2.489
307.96	2.498
308.17	2.500
308.38	2.463
308.59	2.377
308.80	2.364
309.01	2.419
309.22	2.435
309.43	2.387
309.64	2.419
309.85	2.366
310.06	2.359
310.27	2.405
310.48	2.406
310.70	2.454
310.91	2.469
311.12	2.414
311.33	2.400
311.54	2.373
311.75	2.400
311.96	2.498
312.17	2.538
312.38	2.555
312.59	2.533
312.80	2.516
313.01	2.479
313.22	2.612
313.43	2.685
313.64	2.642
313.85	2.711
314.06	2.684
314.27	2.613
314.48	2.649
314.69	2.706
314.90	2.757
315.11	2.804
315.32	2.804
315.53	2.732
315.74	2.725
315.95	2.774
316.16	2.750
316.37	2.715
316.58	2.714
316.79	2.632
317.00	2.629
317.21	2.478
317.42	2.433
317.63	2.481
317.84	2.411
318.05	2.433
318.26	2.426
318.47	2.469
318.68	2.541
318.89	2.601
319.10	2.664
319.31	2.649
319.52	2.700
319.73	2.791
319.94	2.805
320.15	2.838
320.36	2.894
320.57	2.881
320.78	2.877
320.99	2.822
321.20	2.830
321.41	2.780
321.62	2.785
321.83	2.768
322.04	2.684
322.25	2.656
322.46	2.648
322.67	2.615
322.88	2.604
323.09	2.633
323.30	2.683
323.51	2.618
323.72	2.607
323.93	2.579
324.14	2.714
324.35	2.786
324.56	2.779
324.77	2.751
324.98	2.723
325.19	2.765
325.40	2.764
325.61	2.782
325.82	2.862
326.03	2.949
326.24	2.951
326.45	2.903
326.65	2.880
326.86	2.905
327.07	2.945
327.28	2.946
327.49	2.956
327.70	2.980
327.91	2.954
328.12	2.947
328.33	2.908
328.54	2.953
328.75	2.967
328.96	3.011
329.17	3.016
329.38	3.036
329.59	3.059
329.80	3.018
330.01	3.074
330.22	3.109
330.43	3.097
330.64	3.095
330.85	3.118
331.05	3.091
331.26	3.085
331.47	3.084
331.68	3.079
331.89	3.134
332.10	3.102
332.31	3.077
332.52	3.059
332.73	3.015
332.94	2.990
333.15	2.982
333.36	3.002
333.57	2.971
333.78	2.996
333.99	2.997
334.19	2.961
334.40	3.018
334.61	3.028
334.82	3.094
335.03	3.077
335.24	3.114
335.45	3.154
335.66	3.187
335.87	3.217
336.08	3.195
336.29	3.202
336.50	3.206
336.71	3.322
336.91	3.369
337.12	3.276
337.33	3.329
337.54	3.364
337.75	3.316
337.96	3.259
338.17	3.307
338.38	3.315
338.59	3.362
338.80	3.367
339.01	3.315
339.21	3.178
339.42	3.271
339.63	3.266
339.84	3.313
340.05	3.363
340.26	3.374
340.47	3.308
340.68	3.313
340.89	3.298
341.10	3.312
341.30	3.308
341.51	3.355
341.72	3.337
341.93	3.403
342.14	3.290
342.35	3.289
342.56	3.291
342.77	3.328
342.98	3.316
343.18	3.302
343.39	3.313
343.60	3.279
343.81	3.316
344.02	3.358
344.23	3.363
344.44	3.448
344.65	3.415
344.85	3.432
345.06	3.447
345.27	3.482
345.48	3.461
345.69	3.499
345.90	3.557
346.11	3.544
346.32	3.503
346.52	3.514
346.73	3.454
346.94	3.477
347.15	3.530
347.36	3.510
347.57	3.557
347.78	3.562
347.98	3.551
348.19	3.562
348.40	3.596
348.61	3.654
348.82	3.603
349.03	3.664
349.24	3.683
349.44	3.639
349.65	3.657
349.86	3.655
350.07	3.730
350.28	3.742
350.49	3.679
350.70	3.665
350.90	3.675
351.11	3.704
351.32	3.693
351.53	3.732
351.74	3.799
351.95	3.795
352.15	3.756
352.36	3.757
352.57	3.712
352.78	3.790
352.99	3.826
353.20	3.846
353.40	3.833
353.61	3.867
353.82	3.825
354.03	3.848
354.24	3.865
354.45	3.910
354.65	3.908
354.86	3.947
355.07	3.939
355.28	3.969
355.49	3.955
355.70	3.968
355.90	3.941
356.11	3.981
356.32	3.932
356.53	3.938
356.74	3.930
356.94	3.932
357.15	3.942
357.36	3.977
357.57	3.952
357.78	3.922
357.99	3.954
358.19	3.993
358.40	3.998
358.61	4.039
358.82	4.131
359.03	4.144
359.23	4.143
359.44	4.171
359.65	4.125
359.86	4.154
360.07	4.202
360.27	4.252
360.48	4.275
360.69	4.261
360.90	4.237
361.11	4.263
361.31	4.262
361.52	4.281
361.73	4.263
361.94	4.287
362.15	4.286
362.35	4.277
362.56	4.270
362.77	4.261
362.98	4.320
363.18	4.321
363.39	4.242
363.60	4.288
363.81	4.287
364.02	4.319
364.22	4.347
364.43	4.325
364.64	4.315
364.85	4.263
365.05	4.294
365.26	4.287
365.47	4.342
365.68	4.345
365.89	4.302
366.09	4.324
366.30	4.327
366.51	4.319
366.72	4.313
366.92	4.362
367.13	4.433
367.34	4.438
367.55	4.433
367.75	4.448
367.96	4.514
368.17	4.553
368.38	4.584
368.58	4.562
368.79	4.528
369.00	4.585
369.21	4.570
369.41	4.588
369.62	4.549
369.83	4.572
370.04	4.540
370.24	4.518
370.45	4.541
370.66	4.540
370.87	4.562
371.07	4.598
371.28	4.577
371.49	4.615
371.70	4.583
371.90	4.601
372.11	4.597
372.32	4.596
372.53	4.620
372.73	4.627
372.94	4.599
373.15	4.624
373.36	4.639
373.56	4.709
373.77	4.704
373.98	4.745
374.19	4.801
374.39	4.816
374.60	4.844
374.81	4.844
375.01	4.845
375.22	4.855
375.43	4.860
375.64	4.884
375.84	4.846
376.05	4.867
376.26	4.853
376.46	4.812
376.67	4.793
376.88	4.826
377.09	4.816
377.29	4.815
377.50	4.824
377.71	4.848
377.91	4.856
378.12	4.880
378.33	4.894
378.54	4.911
378.74	4.946
378.95	4.960
379.16	4.960
379.36	4.944
379.57	4.941
379.78	4.962
379.99	4.980
380.19	4.969
380.40	4.939
380.61	4.913
380.81	4.918
381.02	4.940
381.23	4.933
381.43	4.930
381.64	4.992
381.85	5.030
382.05	5.035
382.26	5.000
382.47	5.033
382.67	5.051
382.88	5.055
383.09	5.073
383.30	5.054
383.50	5.116
383.71	5.111
383.92	5.091
384.12	5.103
384.33	5.104
384.54	5.133
384.74	5.112
384.95	5.111
385.16	5.148
385.36	5.160
385.57	5.172
385.78	5.165
385.98	5.209
386.19	5.204
386.40	5.200
386.60	5.199
386.81	5.192
387.02	5.214
387.22	5.237
387.43	5.225
387.64	5.219
387.84	5.223
388.05	5.225
388.26	5.223
388.46	5.254
388.67	5.283
388.88	5.332
389.08	5.357
389.29	5.388
389.49	5.411
389.70	5.440
389.91	5.433
390.11	5.422
390.32	5.419
390.53	5.430
390.73	5.450
390.94	5.442
391.15	5.431
391.35	5.441
391.56	5.441
391.77	5.448
391.97	5.432
392.18	5.457
392.38	5.510
392.59	5.531
392.80	5.519
393.00	5.496
393.21	5.490
393.42	5.527
393.62	5.535
393.83	5.548
394.04	5.532
394.24	5.534
394.45	5.524
394.65	5.534
394.86	5.528
395.07	5.525
395.27	5.536
395.48	5.563
395.68	5.540
395.89	5.572
396.10	5.593
396.30	5.616
396.51	5.650
396.72	5.700
396.92	5.681
397.13	5.691
397.33	5.715
397.54	5.724
397.75	5.759
397.95	5.769
398.16	5.749
398.36	5.746
398.57	5.775
398.78	5.770
398.98	5.739
399.19	5.742
399.39	5.742
399.60	5.747
399.81	5.763
400.01	5.731
400.22	5.758
400.42	5.796
400.63	5.788
400.84	5.808
401.04	5.836
401.25	5.863
401.45	5.890
401.66	5.921
401.86	5.930
402.07	5.959
402.28	5.975
402.48	5.968
402.69	5.971
402.89	6.003
403.10	5.996
403.31	5.980
403.51	5.993
403.72	6.017
403.92	6.015
404.13	6.023
404.33	6.028
404.54	6.023
404.75	6.031
404.95	6.051
405.16	6.037
405.36	6.046
405.57	6.059
405.77	6.070
405.98	6.057
406.18	6.071
406.39	6.093
406.60	6.082
406.80	6.119
407.01	6.146
407.21	6.145
407.42	6.164
407.62	6.175
407.83	6.183
408.03	6.186
408.24	6.226
408.45	6.243
408.65	6.274
408.86	6.312
409.06	6.317
409.27	6.326
409.47	6.313
409.68	6.327
409.88	6.380
410.09	6.405
410.29	6.419
410.50	6.416
410.71	6.443
410.91	6.452
411.12	6.464
411.32	6.477
411.53	6.491
411.73	6.518
411.94	6.528
412.14	6.510
412.35	6.530
412.55	6.556
412.76	6.572
412.96	6.581
413.17	6.580
413.37	6.567
413.58	6.613
413.78	6.633
413.99	6.664
414.19	6.696
414.40	6.721
414.61	6.718
414.81	6.731
415.02	6.745
415.22	6.735
415.43	6.762
415.63	6.780
415.84	6.775
416.04	6.780
416.25	6.774
416.45	6.761
416.66	6.768
416.86	6.790
417.07	6.776
417.27	6.775
417.48	6.791
417.68	6.799
417.89	6.793
418.09	6.785
418.30	6.767
418.50	6.766
418.71	6.765
418.91	6.763
419.12	6.763
419.32	6.776
419.53	6.789
419.73	6.817
419.94	6.821
420.14	6.834
420.34	6.848
420.55	6.869
420.75	6.882
420.96	6.899
421.16	6.897
421.37	6.898
421.57	6.915
421.78	6.924
421.98	6.924
422.19	6.940
422.39	6.986
422.60	7.002
422.80	7.033
423.01	7.055
423.21	7.077
423.42	7.098
423.62	7.121
423.83	7.123
424.03	7.138
424.23	7.141
424.44	7.138
424.64	7.128
424.85	7.136
425.05	7.138
425.26	7.162
425.46	7.189
425.67	7.206
425.87	7.228
426.08	7.260
426.28	7.266
426.48	7.295
426.69	7.323
426.89	7.359
427.10	7.408
427.30	7.452
427.51	7.470
427.71	7.467
427.92	7.490
428.12	7.517
428.32	7.529
428.53	7.557
428.73	7.580
428.94	7.600
429.14	7.608
429.35	7.593
429.55	7.597
429.76	7.600
429.96	7.623
430.16	7.640
430.37	7.650
430.57	7.670
430.78	7.709
430.98	7.715
431.19	7.729
431.39	7.709
431.59	7.731
431.80	7.745
432.00	7.758
432.21	7.758
432.41	7.752
432.61	7.755
432.82	7.772
433.02	7.774
433.23	7.784
433.43	7.788
433.64	7.822
433.84	7.828
434.04	7.830
434.25	7.844
434.45	7.869
434.66	7.898
434.86	7.916
435.06	7.933
435.27	7.953
435.47	7.979
435.68	7.994
435.88	8.052
436.08	8.067
436.29	8.087
436.49	8.094
436.70	8.100
436.90	8.123
437.10	8.134
437.31	8.133
437.51	8.140
437.71	8.153
437.92	8.161
438.12	8.140
438.33	8.148
438.53	8.161
438.73	8.192
438.94	8.215
439.14	8.209
439.35	8.213
439.55	8.247
439.75	8.241
439.96	8.251
440.16	8.287
440.36	8.285
440.57	8.304
440.77	8.304
440.97	8.304
441.18	8.309
441.38	8.341
441.59	8.373
441.79	8.368
441.99	8.410
442.20	8.423
442.40	8.427
442.60	8.470
442.81	8.486
443.01	8.523
443.21	8.536
443.42	8.566
443.62	8.586
443.83	8.612
444.03	8.637
444.23	8.637
444.44	8.651
444.64	8.663
444.84	8.671
445.05	8.691
445.25	8.700
445.45	8.720
445.66	8.709
445.86	8.707
446.06	8.708
446.27	8.712
446.47	8.710
446.67	8.725
446.88	8.727
447.08	8.740
447.28	8.748
447.49	8.764
447.69	8.772
447.89	8.803
448.10	8.831
448.30	8.867
448.50	8.885
448.71	8.936
448.91	8.956
449.11	8.995
449.32	9.037
449.52	9.074
449.72	9.110
449.93	9.129
450.13	9.160
450.33	9.198
450.53	9.194
450.74	9.237
450.94	9.258
451.14	9.281
451.35	9.299
451.55	9.293
451.75	9.299
451.96	9.296
452.16	9.303
452.36	9.310
452.57	9.325
452.77	9.343
452.97	9.345
453.17	9.354
453.38	9.378
453.58	9.396
453.78	9.408
453.99	9.422
454.19	9.457
454.39	9.489
454.59	9.507
454.80	9.510
455.00	9.541
455.20	9.558
455.41	9.566
455.61	9.572
455.81	9.582
456.01	9.601
456.22	9.626
456.42	9.656
456.62	9.669
456.83	9.710
457.03	9.722
457.23	9.713
457.43	9.741
457.64	9.790
457.84	9.796
458.04	9.844
458.25	9.856
458.45	9.869
458.65	9.866
458.85	9.881
459.06	9.853
459.26	9.854
459.46	9.858
459.66	9.855
459.87	9.834
460.07	9.856
460.27	9.843
460.47	9.861
460.68	9.883
460.88	9.884
461.08	9.908
461.28	9.958
461.49	9.991
461.69	10.054
461.89	10.088
462.09	10.134
462.30	10.152
462.50	10.202
462.70	10.221
462.90	10.213
463.11	10.266
463.31	10.272
463.51	10.292
463.71	10.323
463.92	10.317
464.12	10.336
464.32	10.366
464.52	10.388
464.72	10.416
464.93	10.443
465.13	10.487
465.33	10.486
465.53	10.513
465.74	10.534
465.94	10.547
466.14	10.562
466.34	10.578
466.54	10.577
466.75	10.589
466.95	10.576
467.15	10.581
467.35	10.591
467.56	10.605
467.76	10.624
467.96	10.633
468.16	10.645
468.36	10.665
468.57	10.707
468.77	10.734
468.97	10.746
469.17	10.772
469.37	10.793
469.58	10.813
469.78	10.841
469.98	10.853
470.18	10.863
470.38	10.874
470.59	10.901
470.79	10.894
470.99	10.917
471.19	10.944
471.39	10.971
471.60	11.003
471.80	11.025
472.00	11.050
472.20	11.068
472.40	11.096
472.61	11.120
472.81	11.144
473.01	11.163
473.21	11.174
473.41	11.186
473.61	11.196
473.82	11.218
474.02	11.216
474.22	11.229
474.42	11.260
474.62	11.287
474.82	11.321
475.03	11.352
475.23	11.371
475.43	11.414
475.63	11.445
475.83	11.464
476.03	11.459
476.24	11.485
476.44	11.500
476.64	11.501
476.84	11.501
477.04	11.505
477.24	11.498
477.45	11.524
477.65	11.520
477.85	11.530
478.05	11.526
478.25	11.545
478.45	11.566
478.65	11.586
478.86	11.599
479.06	11.620
479.26	11.657
479.46	11.691
479.66	11.715
479.86	11.734
480.06	11.772
480.27	11.798
480.47	11.816
480.67	11.826
480.87	11.829
481.07	11.849
481.27	11.875
481.47	11.881
481.68	11.893
481.88	11.908
482.08	11.953
482.28	11.986
482.48	12.065
482.68	12.126
482.88	12.217
483.08	12.393
483.29	12.478
483.49	12.410
483.69	12.345
483.89	12.308
484.09	12.286
484.29	12.258
484.49	12.251
484.69	12.232
484.89	12.219
485.10	12.168
485.30	12.018
485.50	11.911
485.70	11.959
485.90	12.039
486.10	12.116
486.30	12.186
486.50	12.252
486.70	12.278
486.90	12.289
487.11	12.303
487.31	12.310
487.51	12.318
487.71	12.305
487.91	12.310
488.11	12.309
488.31	12.310
488.51	12.312
488.71	12.321
488.91	12.339
489.11	12.364
489.32	12.386
489.52	12.425
489.72	12.468
489.92	12.530
490.12	12.598
490.32	12.673
490.52	12.713
490.72	12.733
490.92	12.736
491.12	12.713
491.32	12.706
491.52	12.698
491.72	12.698
491.92	12.694
492.13	12.693
492.33	12.685
492.53	12.688
492.73	12.690
492.93	12.705
493.13	12.742
493.33	12.805
493.53	12.859
493.73	12.907
493.93	12.953
494.13	12.997
494.33	13.031
494.53	13.057
494.73	13.071
494.93	13.106
495.13	13.134
495.33	13.148
495.53	13.148
495.73	13.168
495.94	13.202
496.14	13.220
496.34	13.226
496.54	13.237
496.74	13.255
496.94	13.273
497.14	13.272
497.34	13.287
497.54	13.303
497.74	13.324
497.94	13.349
498.14	13.365
498.34	13.374
498.54	13.402
498.74	13.423
498.94	13.451
499.14	13.475
499.34	13.497
499.54	13.505
499.74	13.510
499.94	13.537
500.14	13.549
500.34	13.564
500.54	13.601
500.74	13.626
500.94	13.651
501.14	13.659
501.34	13.677
501.54	13.701
501.74	13.721
501.94	13.744
502.14	13.775
502.34	13.803
502.54	13.825
502.74	13.836
502.94	13.843
503.14	13.865
503.34	13.882
503.54	13.906
503.74	13.916
503.94	13.935
504.14	13.946
504.34	13.946
504.54	13.968
504.74	13.983
504.94	14.004
505.14	14.043
505.34	14.061
505.54	14.086
505.74	14.103
505.94	14.141
506.14	14.188
506.34	14.220
506.54	14.254
506.74	14.262
506.94	14.271
507.14	14.270
507.34	14.265
507.54	14.283
507.74	14.277
507.94	14.273
508.14	14.268
508.34	14.247
508.54	14.244
508.74	14.249
508.94	14.254
509.13	14.261
509.33	14.284
509.53	14.312
509.73	14.322
509.93	14.350
510.13	14.367
510.33	14.396
510.53	14.436
510.73	14.480
510.93	14.505
511.13	14.533
511.33	14.577
511.53	14.600
511.73	14.610
511.93	14.627
512.13	14.650
512.33	14.677
512.53	14.688
512.73	14.704
512.92	14.717
513.12	14.730
513.32	14.746
513.52	14.766
513.72	14.782
513.92	14.803
514.12	14.829
514.32	14.840
514.52	14.861
514.72	14.886
514.92	14.890
515.12	14.904
515.32	14.916
515.52	14.952
515.71	14.972
515.91	14.994
516.11	15.013
516.31	15.027
516.51	15.041
516.71	15.054
516.91	15.087
517.11	15.118
517.31	15.124
517.51	15.155
517.71	15.164
517.90	15.175
518.10	15.167
518.30	15.165
518.50	15.161
518.70	15.169
518.90	15.176
519.10	15.170
519.30	15.166
519.50	15.195
519.69	15.202
519.89	15.213
520.09	15.227
520.29	15.275
520.49	15.312
520.69	15.353
520.89	15.393
521.09	15.428
521.29	15.467
521.48	15.510
521.68	15.519
521.88	15.542
522.08	15.571
522.28	15.605
522.48	15.626
522.68	15.656
522.88	15.671
523.07	15.692
523.27	15.729
523.47	15.752
523.67	15.765
523.87	15.798
524.07	15.811
524.27	15.816
524.47	15.809
524.66	15.810
524.86	15.802
525.06	15.807
525.26	15.814
525.46	15.808
525.66	15.810
525.85	15.823
526.05	15.825
526.25	15.840
526.45	15.867
526.65	15.904
526.85	15.967
527.05	16.043
527.24	16.124
527.44	16.185
527.64	16.239
527.84	16.272
528.04	16.278
528.24	16.267
528.43	16.255
528.63	16.242
528.83	16.221
529.03	16.191
529.23	16.169
529.43	16.143
529.62	16.115
529.82	16.081
530.02	16.060
530.22	16.062
530.42	16.083
530.62	16.110
530.81	16.143
531.01	16.193
531.21	16.247
531.41	16.294
531.61	16.352
531.80	16.414
532.00	16.464
532.20	16.488
532.40	16.501
532.60	16.521
532.79	16.522
532.99	16.502
533.19	16.500
533.39	16.487
533.59	16.496
533.78	16.485
533.98	16.472
534.18	16.473
534.38	16.486
534.58	16.495
534.77	16.510
534.97	16.546
535.17	16.627
535.37	16.676
535.57	16.738
535.76	16.763
535.96	16.794
536.16	16.809
536.36	16.817
536.56	16.814
536.75	16.827
536.95	16.838
537.15	16.845
537.35	16.848
537.54	16.859
537.74	16.871
537.94	16.901
538.14	16.935
538.34	16.989
538.53	17.053
538.73	17.102
538.93	17.137
539.13	17.178
539.32	17.219
539.52	17.246
539.72	17.294
539.92	17.338
540.11	17.348
540.31	17.345
540.51	17.338
540.71	17.308
540.90	17.277
541.10	17.257
541.30	17.243
541.50	17.243
541.69	17.236
541.89	17.229
542.09	17.225
542.29	17.217
542.48	17.219
542.68	17.231
542.88	17.249
543.08	17.291
543.27	17.344
543.47	17.386
543.67	17.416
543.87	17.443
544.06	17.468
544.26	17.500
544.46	17.536
544.65	17.581
544.85	17.615
545.05	17.659
545.25	17.706
545.44	17.711
545.64	17.742
545.84	17.779
546.04	17.786
546.23	17.790
546.43	17.781
546.63	17.784
546.82	17.784
547.02	17.788
547.22	17.806
547.42	17.802
547.61	17.841
547.81	17.853
548.01	17.844
548.20	17.892
548.40	17.935
548.60	17.986
548.79	18.033
548.99	18.082
549.19	18.118
549.39	18.141
549.58	18.186
549.78	18.193
549.98	18.210
550.17	18.249
550.37	18.254
550.57	18.269
550.76	18.283
550.96	18.298
551.16	18.332
551.35	18.359
551.55	18.384
551.75	18.385
551.94	18.403
552.14	18.402
552.34	18.411
552.53	18.422
552.73	18.437
552.93	18.449
553.13	18.469
553.32	18.454
553.52	18.470
553.72	18.471
553.91	18.501
554.11	18.513
554.31	18.564
554.50	18.594
554.70	18.625
554.89	18.667
555.09	18.703
555.29	18.718
555.48	18.766
555.68	18.795
555.88	18.817
556.07	18.844
556.27	18.894
556.47	18.886
556.66	18.935
556.86	18.974
557.06	18.986
557.25	18.991
557.45	19.018
557.65	19.003
557.84	19.018
558.04	19.015
558.23	19.032
558.43	19.028
558.63	19.063
558.82	19.031
559.02	19.025
559.22	19.023
559.41	19.029
559.61	19.040
559.81	19.059
560.00	19.070
560.20	19.121
560.39	19.135
560.59	19.167
560.79	19.180
560.98	19.202
561.18	19.217
561.37	19.251
561.57	19.266
561.77	19.282
561.96	19.300
562.16	19.328
562.36	19.336
562.55	19.358
562.75	19.370
562.94	19.392
563.14	19.409
563.34	19.443
563.53	19.454
563.73	19.488
563.92	19.520
564.12	19.548
564.32	19.546
564.51	19.560
564.71	19.566
564.90	19.579
565.10	19.578
565.29	19.602
565.49	19.603
565.69	19.619
565.88	19.601
566.08	19.593
566.27	19.589
566.47	19.595
566.67	19.616
566.86	19.642
567.06	19.644
567.25	19.673
567.45	19.691
567.64	19.708
567.84	19.737
568.04	19.788
568.23	19.820
568.43	19.876
568.62	19.914
568.82	19.931
569.01	19.940
569.21	19.958
569.41	19.970
569.60	19.980
569.80	20.003
569.99	20.004
570.19	20.028
570.38	20.037
570.58	20.041
570.77	20.043
570.97	20.039
571.17	20.056
571.36	20.063
571.56	20.056
571.75	20.068
571.95	20.070
572.14	20.082
572.34	20.081
572.53	20.100
572.73	20.124
572.92	20.142
573.12	20.176
573.31	20.189
573.51	20.224
573.70	20.263
573.90	20.289
574.10	20.323
574.29	20.351
574.49	20.368
574.68	20.381
574.88	20.376
575.07	20.392
575.27	20.397
575.46	20.401
575.66	20.422
575.85	20.451
576.05	20.470
576.24	20.480
576.44	20.502
576.63	20.533
576.83	20.549
577.02	20.588
577.22	20.604
577.41	20.623
577.61	20.641
577.80	20.653
578.00	20.649
578.19	20.664
578.39	20.677
578.58	20.673
578.78	20.675
578.97	20.699
579.17	20.717
579.36	20.733
579.56	20.788
579.75	20.810
579.95	20.824
580.14	20.841
580.34	20.853
580.53	20.853
580.73	20.865
580.92	20.902
581.12	20.912
581.31	20.904
581.51	20.933
581.70	20.908
581.89	20.910
582.09	20.930
582.28	20.954
582.48	20.972
582.67	21.029
582.87	21.048
583.06	21.039
583.26	21.056
583.45	21.086
583.65	21.103
583.84	21.145
584.04	21.177
584.23	21.196
584.43	21.191
584.62	21.223
584.81	21.213
585.01	21.237
585.20	21.253
585.40	21.284
585.59	21.281
585.79	21.280
585.98	21.312
586.18	21.322
586.37	21.328
586.56	21.371
586.76	21.365
586.95	21.382
587.15	21.395
587.34	21.409
587.54	21.415
587.73	21.442
587.92	21.460
588.12	21.459
588.31	21.491
588.51	21.498
588.70	21.481
588.90	21.474
589.09	21.498
589.28	21.513
589.48	21.526
589.67	21.532
589.87	21.546
590.06	21.564
590.25	21.577
590.45	21.592
590.64	21.597
590.84	21.626
591.03	21.668
591.23	21.675
591.42	21.706
591.61	21.724
591.81	21.731
592.00	21.735
592.20	21.757
592.39	21.758
592.58	21.741
592.78	21.773
592.97	21.784
593.17	21.784
593.36	21.790
593.55	21.775
593.75	21.807
593.94	21.815
594.13	21.823
594.33	21.831
594.52	21.852
594.72	21.893
594.91	21.916
595.10	21.931
595.30	21.966
595.49	21.994
595.68	22.031
595.88	22.027
596.07	22.019
596.27	22.013
596.46	21.995
596.65	21.977
596.85	21.949
597.04	21.961
597.23	21.975
597.43	21.959
597.62	21.956
597.81	21.949
598.01	21.966
598.20	22.014
598.40	22.050
598.59	22.074
598.78	22.119
598.98	22.176
599.17	22.172
599.36	22.184
599.56	22.251
599.75	22.259
599.94	22.286
600.14	22.300
600.33	22.324
600.52	22.343
600.72	22.395
600.91	22.397
601.10	22.388
601.30	22.416
601.49	22.425
601.68	22.403
601.88	22.451
602.07	22.452
602.26	22.449
602.46	22.423
602.65	22.433
602.84	22.431
603.04	22.460
603.23	22.468
603.42	22.471
603.62	22.474
603.81	22.467
604.00	22.448
604.20	22.445
604.39	22.448
604.58	22.468
604.77	22.444
604.97	22.442
605.16	22.434
605.35	22.442
605.55	22.450
605.74	22.451
605.93	22.487
606.13	22.513
606.32	22.516
606.51	22.546
606.70	22.584
606.90	22.648
607.09	22.688
607.28	22.715
607.48	22.767
607.67	22.811
607.86	22.874
608.05	22.877
608.25	22.890
608.44	22.929
608.63	22.918
608.83	22.887
609.02	22.867
609.21	22.849
609.40	22.844
609.60	22.840
609.79	22.798
609.98	22.779
610.17	22.784
610.37	22.783
610.56	22.786
610.75	22.812
610.95	22.840
611.14	22.872
611.33	22.909
611.52	22.935
611.72	22.950
611.91	22.996
612.10	23.016
612.29	23.058
612.49	23.060
612.68	23.087
612.87	23.086
613.06	23.083
613.26	23.116
613.45	23.115
613.64	23.124
613.83	23.104
614.03	23.124
614.22	23.147
614.41	23.127
614.60	23.178
614.79	23.178
614.99	23.218
615.18	23.239
615.37	23.246
615.56	23.239
615.76	23.279
615.95	23.323
616.14	23.329
616.33	23.344
616.53	23.369
616.72	23.377
616.91	23.393
617.10	23.393
617.29	23.425
617.49	23.426
617.68	23.453
617.87	23.434
618.06	23.438
618.25	23.443
618.45	23.452
618.64	23.455
618.83	23.452
619.02	23.470
619.21	23.508
619.41	23.501
619.60	23.524
619.79	23.523
619.98	23.551
620.17	23.565
620.37	23.579
620.56	23.591
620.75	23.617
620.94	23.626
621.13	23.632
621.33	23.610
621.52	23.634
621.71	23.649
621.90	23.679
622.09	23.657
622.28	23.659
622.48	23.668
622.67	23.687
622.86	23.671
623.05	23.714
623.24	23.714
623.44	23.746
623.63	23.766
623.82	23.775
624.01	23.788
624.20	23.828
624.39	23.855
624.59	23.887
624.78	23.868
624.97	23.912
625.16	23.886
625.35	23.907
625.54	23.888
625.73	23.899
625.93	23.896
626.12	23.902
626.31	23.902
626.50	23.888
626.69	23.866
626.88	23.874
627.07	23.876
627.27	23.898
627.46	23.894
627.65	23.921
627.84	23.918
628.03	23.921
628.22	23.932
628.41	23.939
628.61	23.987
628.80	24.035
628.99	24.072
629.18	24.076
629.37	24.096
629.56	24.128
629.75	24.141
629.94	24.148
630.14	24.154
630.33	24.179
630.52	24.189
630.71	24.165
630.90	24.181
631.09	24.198
631.28	24.224
631.47	24.250
631.66	24.261
631.86	24.271
632.05	24.303
632.24	24.323
632.43	24.323
632.62	24.356
632.81	24.383
633.00	24.378
633.19	24.364
633.38	24.355
633.57	24.356
633.77	24.349
633.96	24.377
634.15	24.347
634.34	24.364
634.53	24.351
634.72	24.343
634.91	24.360
635.10	24.341
635.29	24.359
635.48	24.379
635.67	24.376
635.86	24.417
636.05	24.436
636.25	24.484
636.44	24.504
636.63	24.549
636.82	24.586
637.01	24.603
637.20	24.649
637.39	24.680
637.58	24.678
637.77	24.677
637.96	24.685
638.15	24.676
638.34	24.692
638.53	24.705
638.72	24.712
638.91	24.733
639.10	24.744
639.30	24.739
639.49	24.748
639.68	24.765
639.87	24.779
640.06	24.784
640.25	24.800
640.44	24.784
640.63	24.768
640.82	24.768
641.01	24.769
641.20	24.784
641.39	24.812
641.58	24.838
641.77	24.861
641.96	24.894
642.15	24.897
642.34	24.909
642.53	24.947
642.72	24.993
642.91	25.004
643.10	25.005
643.29	25.019
643.48	25.055
643.67	25.036
643.86	25.082
644.05	25.120
644.24	25.134
644.43	25.143
644.62	25.152
644.81	25.152
645.00	25.190
645.19	25.222
645.38	25.238
645.57	25.214
645.76	25.225
645.95	25.193
646.14	25.165
646.33	25.200
646.52	25.233
646.71	25.251
646.90	25.266
647.09	25.258
647.28	25.240
647.47	25.219
647.66	25.226
647.85	25.228
648.04	25.267
648.23	25.293
648.42	25.268
648.61	25.254
648.80	25.217
648.99	25.220
649.18	25.213
649.37	25.246
649.56	25.269
649.75	25.270
649.94	25.287
650.13	25.287
650.32	25.299
650.51	25.290
650.70	25.303
650.89	25.343
651.08	25.338
651.27	25.391
651.46	25.353
651.65	25.364
651.83	25.364
652.02	25.397
652.21	25.398
652.40	25.394
652.59	25.412
652.78	25.437
652.97	25.436
653.16	25.422
653.35	25.406
653.54	25.446
653.73	25.459
653.92	25.492
654.11	25.488
654.30	25.543
654.49	25.559
654.68	25.557
654.86	25.548
655.05	25.573
655.24	25.583
655.43	25.574
655.62	25.585
655.81	25.593
656.00	25.610
656.19	25.602
656.38	25.552
656.57	25.571
656.76	25.581
656.95	25.605
657.13	25.631
657.32	25.690
657.51	25.704
657.70	25.743
657.89	25.734
658.08	25.743
658.27	25.737
658.46	25.725
658.65	25.683
658.84	25.710
659.02	25.709
659.21	25.716
659.40	25.718
659.59	25.745
659.78	25.707
659.97	25.722
660.16	25.726
660.35	25.752
660.54	25.763
660.72	25.797
660.91	25.817
661.10	25.796
661.29	25.817
661.48	25.826
661.67	25.831
661.86	25.893
662.05	25.923
662.23	25.924
662.42	25.940
662.61	25.984
662.80	26.018
662.99	26.058
663.18	26.123
663.37	26.105
663.56	26.152
663.74	26.162
663.93	26.145
664.12	26.152
664.31	26.187
664.50	26.229
664.69	26.233
664.87	26.250
665.06	26.228
665.25	26.185
665.44	26.182
665.63	26.146
665.82	26.143
666.01	26.177
666.19	26.192
666.38	26.199
666.57	26.166
666.76	26.190
666.95	26.186
667.14	26.215
667.32	26.264
667.51	26.294
667.70	26.330
667.89	26.350
668.08	26.338
668.26	26.334
668.45	26.340
668.64	26.357
668.83	26.356
669.02	26.343
669.21	26.310
669.39	26.320
669.58	26.307
669.77	26.306
669.96	26.309
670.15	26.334
670.33	26.310
670.52	26.322
670.71	26.334
670.90	26.339
671.09	26.388
671.27	26.445
671.46	26.438
671.65	26.472
671.84	26.482
672.03	26.548
672.21	26.546
672.40	26.593
672.59	26.584
672.78	26.608
672.96	26.607
673.15	26.609
673.34	26.597
673.53	26.624
673.72	26.609
673.90	26.608
674.09	26.570
674.28	26.612
674.47	26.631
674.65	26.682
674.84	26.653
675.03	26.704
675.22	26.714
675.41	26.725
675.59	26.731
675.78	26.746
675.97	26.756
676.16	26.759
676.34	26.734
676.53	26.722
676.72	26.699
676.91	26.725
677.09	26.713
677.28	26.708
677.47	26.697
677.66	26.688
677.84	26.660
678.03	26.665
678.22	26.685
678.41	26.709
678.59	26.714
678.78	26.747
678.97	26.780
679.15	26.782
679.34	26.789
679.53	26.781
679.72	26.790
679.90	26.817
680.09	26.806
680.28	26.776
680.47	26.750
680.65	26.757
680.84	26.715
681.03	26.730
681.21	26.735
681.40	26.697
681.59	26.722
681.78	26.756
681.96	26.786
682.15	26.839
682.34	26.891
682.52	26.948
682.71	26.934
682.90	26.944
683.08	26.920
683.27	26.936
683.46	26.992
683.65	27.024
683.83	27.015
684.02	27.032
684.21	27.029
684.39	27.015
684.58	27.010
684.77	27.071
684.95	27.075
685.14	27.100
685.33	27.099
685.51	27.109
685.70	27.102
685.89	27.143
686.07	27.165
686.26	27.169
686.45	27.174
686.63	27.127
686.82	27.106
687.01	27.153
687.20	27.152
687.38	27.161
687.57	27.178
687.75	27.186
687.94	27.175
688.13	27.168
688.31	27.164
688.50	27.205
688.69	27.240
688.87	27.291
689.06	27.283
689.25	27.296
689.43	27.289
689.62	27.302
689.81	27.314
689.99	27.315
690.18	27.291
690.37	27.289
690.55	27.262
690.74	27.271
690.93	27.264
691.11	27.292
691.30	27.312
691.48	27.354
691.67	27.345
691.86	27.323
692.04	27.330
692.23	27.371
692.42	27.415
692.60	27.433
692.79	27.430
692.97	27.394
693.16	27.397
693.35	27.380
693.53	27.363
693.72	27.389
693.90	27.444
694.09	27.452
694.28	27.439
694.46	27.455
694.65	27.449
694.83	27.494
695.02	27.515
695.21	27.541
695.39	27.585
695.58	27.625
695.76	27.621
695.95	27.621
696.14	27.631
696.32	27.646
696.51	27.587
696.69	27.654
696.88	27.686
697.07	27.722
697.25	27.738
697.44	27.731
697.62	27.714
697.81	27.697
697.99	27.639
698.18	27.591
698.37	27.555
698.55	27.591
698.74	27.524
698.92	27.478
699.11	27.439
699.29	27.388
699.48	27.358
699.67	27.371
699.85	27.365
700.04	27.388
700.22	27.395
700.41	27.459
700.59	27.446
700.78	27.471
700.96	27.498
701.15	27.546
701.34	27.582
701.52	27.611
701.71	27.596
701.89	27.657
702.08	27.704
702.26	27.792
702.45	27.782
702.63	27.798
702.82	27.874
703.00	27.924
703.19	27.906
703.38	27.960
703.56	27.971
703.75	27.983
703.93	27.946
704.12	27.961
704.30	27.969
704.49	27.991
704.67	27.986
704.86	27.974
705.04	27.958
705.23	27.990
705.41	27.959
705.60	27.992
705.78	28.029
705.97	28.087
706.15	28.070
706.34	28.047
706.52	28.070
706.71	28.145
706.89	28.119
707.08	28.111
707.26	28.084
707.45	28.089
707.63	28.088
707.82	28.078
708.00	28.086
708.19	28.092
708.37	28.102
708.56	28.074
708.74	28.043
708.93	28.053
709.11	28.063
709.30	28.112
709.48	28.148
709.67	28.145
709.85	28.158
710.04	28.128
710.22	28.148
710.41	28.138
710.59	28.123
710.77	28.116
710.96	28.134
711.14	28.141
711.33	28.139
711.51	28.105
711.70	28.137
711.88	28.124
712.07	28.111
712.25	28.116
712.44	28.098
712.62	28.114
712.80	28.096
712.99	28.113
713.17	28.105
713.36	28.092
713.54	28.141
713.73	28.108
713.91	28.124
714.10	28.146
714.28	28.147
714.46	28.238
714.65	28.236
714.83	28.288
715.02	28.297
715.20	28.331
715.39	28.346
715.57	28.299
715.75	28.322
715.94	28.316
716.12	28.311
716.31	28.296
716.49	28.269
716.68	28.273
716.86	28.288
717.04	28.281
717.23	28.329
717.41	28.402
717.60	28.430
717.78	28.508
717.96	28.482
718.15	28.489
718.33	28.531
718.52	28.514
718.70	28.570
718.88	28.568
719.07	28.619
719.25	28.525
719.44	28.466
719.62	28.467
719.80	28.394
719.99	28.451
720.17	28.443
720.36	28.420
720.54	28.478
720.72	28.520
720.91	28.493
721.09	28.432
721.27	28.462
721.46	28.495
721.64	28.544
721.83	28.530
722.01	28.532
722.19	28.586
722.38	28.615
722.56	28.575
722.74	28.517
722.93	28.562
723.11	28.542
723.30	28.550
723.48	28.564
723.66	28.526
723.85	28.587
724.03	28.610
724.21	28.685
724.40	28.674
724.58	28.660
724.76	28.730
724.95	28.708
725.13	28.835
725.31	28.880
725.50	28.881
725.68	28.948
725.86	28.962
726.05	28.972
726.23	28.927
726.41	28.940
726.60	28.966
726.78	28.879
726.96	28.891
727.15	28.836
727.33	28.878
727.51	28.870
727.70	28.827
727.88	28.827
728.06	28.824
728.25	28.775
728.43	28.804
728.61	28.858
728.80	28.915
728.98	28.915
729.16	28.917
729.34	28.890
729.53	28.905
729.71	28.963
729.89	28.965
730.08	28.960
730.26	29.043
730.44	29.051
730.63	29.066
730.81	29.063
730.99	29.081
731.17	29.120
731.36	29.072
731.54	29.077
731.72	29.139
731.91	29.085
732.09	29.159
732.27	29.150
732.45	29.135
732.64	29.115
732.82	29.093
733.00	29.112
733.19	29.077
733.37	29.179
733.55	29.167
733.73	29.086
733.92	29.122
734.10	29.083
734.28	29.075
734.46	29.089
734.65	29.070
734.83	29.132
735.01	29.150
735.19	29.170
735.38	29.119
735.56	29.098
735.74	29.138
735.92	29.164
736.11	29.180
736.29	29.212
736.47	29.246
736.65	29.289
736.84	29.277
737.02	29.303
737.20	29.311
737.38	29.382
737.57	29.412
737.75	29.372
737.93	29.418
738.11	29.380
738.30	29.352
738.48	29.358
738.66	29.295
738.84	29.282
739.02	29.225
739.21	29.245
739.39	29.241
739.57	29.281
739.75	29.298
739.93	29.291
740.12	29.292
740.30	29.281
740.48	29.247
740.66	29.287
740.85	29.360
741.03	29.382
741.21	29.389
741.39	29.357
741.57	29.339
741.76	29.372
741.94	29.325
742.12	29.348
742.30	29.413
742.48	29.430
742.66	29.474
742.85	29.474
743.03	29.551
743.21	29.568
743.39	29.559
743.57	29.605
743.76	29.566
743.94	29.607
744.12	29.582
744.30	29.529
744.48	29.550
744.66	29.547
744.85	29.465
745.03	29.370
745.21	29.396
745.39	29.401
745.57	29.379
745.75	29.405
745.94	29.394
746.12	29.445
746.30	29.467
746.48	29.502
746.66	29.439
746.84	29.459
747.02	29.530
747.21	29.488
747.39	29.482
747.57	29.450
747.75	29.465
747.93	29.523
748.11	29.586
748.29	29.657
748.48	29.636
748.66	29.695
748.84	29.712
749.02	29.703
749.20	29.705
749.38	29.700
749.56	29.716
749.75	29.733
749.93	29.722
750.11	29.663
750.29	29.565
750.47	29.594
750.65	29.620
750.83	29.670
751.01	29.654
751.19	29.718
751.38	29.755
751.56	29.802
751.74	29.815
751.92	29.771
752.10	29.768
752.28	29.858
752.46	29.854
752.64	29.815
752.82	29.816
753.00	29.840
753.19	29.792
753.37	29.730
753.55	29.699
753.73	29.696
753.91	29.719
754.09	29.708
754.27	29.671
754.45	29.655
754.63	29.715
754.81	29.644
754.99	29.646
755.17	29.379
755.36	29.415
755.54	29.440
755.72	29.462
755.90	29.432
756.08	29.451
756.26	29.530
756.44	29.533
756.62	29.535
756.80	29.631
756.98	29.632
757.16	29.866
757.34	29.955
757.52	29.965
757.70	29.903
757.88	29.948
758.06	30.016
758.24	29.969
758.42	29.946
758.61	29.942
758.79	29.853
758.97	29.841
759.15	29.901
759.33	29.844
759.51	29.841
759.69	29.875
759.87	29.901
760.05	29.917
760.23	29.884
760.41	29.934
760.59	29.907
760.77	30.014
760.95	30.017
761.13	29.985
761.31	30.092
761.49	30.105
761.67	30.121
761.85	30.117
762.03	30.069
762.21	30.120
762.39	30.097
762.57	30.133
762.75	30.097
762.93	30.080
763.11	30.078
763.29	29.985
763.47	29.929
763.65	29.896
763.83	29.868
764.01	29.855
764.19	29.827
764.37	29.843
764.55	29.791
764.73	29.796
764.91	29.795
765.09	29.836
765.27	29.828
765.45	29.881
765.63	29.900
765.81	29.956
765.99	29.997
766.17	30.000
766.35	29.980
766.53	30.015
766.71	30.005
766.89	30.059
767.07	29.999
767.25	30.103
767.43	30.082
767.61	30.134
767.78	30.099
767.96	30.088
768.14	30.127
768.32	30.232
768.50	30.232
768.68	30.229
768.86	30.187
769.04	30.218
769.22	30.166
769.40	30.213
769.58	30.220
769.76	30.222
769.94	30.236
770.12	30.250
770.30	30.148
770.48	30.126
770.66	30.117
770.84	30.112
771.01	30.144
771.19	30.136
771.37	30.175
771.55	30.181
771.73	30.164
771.91	30.134
772.09	30.112
772.27	30.149
772.45	30.263
772.63	30.290
772.81	30.364
772.99	30.278
773.16	30.217
773.34	30.202
773.52	30.237
773.70	30.342
773.88	30.448
774.06	30.510
774.24	30.478
774.42	30.385
774.60	30.377
774.78	30.240
774.95	30.335
775.13	30.408
775.31	30.393
775.49	30.383
775.67	30.329
775.85	30.185
776.03	30.215
776.21	30.260
776.38	30.320
776.56	30.395
776.74	30.507
776.92	30.528
777.10	30.531
777.28	30.514
777.46	30.457
777.64	30.461
777.81	30.585
777.99	30.521
778.17	30.532
778.35	30.630
778.53	30.602
778.71	30.677
778.89	30.677
779.06	30.625
779.24	30.638
779.42	30.610
779.60	30.630
779.78	30.626
779.96	30.693
780.13	30.738
780.31	30.697
780.49	30.780
780.67	30.674
780.85	30.691
781.03	30.748
781.20	30.695
781.38	30.670
781.56	30.708
781.74	30.632
781.92	30.506
782.10	30.471
782.27	30.486
782.45	30.353
782.63	30.295
782.81	30.245
782.99	30.333
783.17	30.449
783.34	30.525
783.52	30.499
783.70	30.552
783.88	30.643
784.06	30.605
784.23	30.505
784.41	30.657
784.59	30.755
784.77	30.851
784.95	30.776
785.12	30.708
785.30	30.713
785.48	30.722
785.66	30.685
785.83	30.689
786.01	30.802
786.19	30.923
786.37	30.771
786.55	30.819
786.72	30.712
786.90	30.881
787.08	30.896
787.26	30.857
787.43	30.847
787.61	30.903
787.79	30.934
787.97	30.865
788.15	30.757
788.32	30.772
788.50	30.751
788.68	30.770
788.86	30.615
789.03	30.648
789.21	30.721
789.39	30.718
789.57	30.681
789.74	30.601
789.92	30.656
790.10	30.645
790.28	30.736
790.45	30.776
790.63	30.776
790.81	30.789
790.99	30.661
791.16	30.711
791.34	30.811
791.52	30.812
791.69	30.835
791.87	30.700
792.05	30.896
792.23	30.827
792.40	30.784
792.58	30.793
792.76	30.843
792.94	30.976
793.11	30.977
793.29	30.810
793.47	30.875
793.64	30.962
793.82	31.201
794.00	31.086
794.18	31.034
794.35	31.040
794.53	31.031
794.71	31.059
794.88	31.111
795.06	31.066
795.24	31.183
795.41	31.208
795.59	31.209
795.77	31.106
795.94	31.051
796.12	31.207
796.30	31.222
796.48	31.289
796.65	31.255
796.83	31.150
797.01	31.135
797.18	31.082
797.36	31.056
797.54	31.049
797.71	30.942
797.89	31.098
798.07	30.993
798.24	30.975
798.42	30.869
798.60	30.964
798.77	31.040
798.95	31.024
799.13	30.946
799.30	30.951
799.48	30.937
799.66	31.038
799.83	30.961
800.01	31.010
800.18	31.045
800.36	31.148
800.54	31.084
800.71	31.060
800.89	31.076
801.07	31.110
801.24	31.157
801.42	31.223
801.60	31.313
801.77	31.301
801.95	31.239
802.12	31.334
802.30	31.299
802.48	31.283
802.65	31.347
802.83	31.410
803.01	31.487
803.18	31.419
803.36	31.355
803.53	31.172
803.71	31.197
803.89	31.295
804.06	31.199
804.24	31.219
804.41	31.210
804.59	31.115
804.77	31.231
804.94	31.282
805.12	31.252
805.29	31.237
805.47	31.279
805.65	31.291
805.82	31.316
806.00	31.316
806.17	31.212
806.35	31.182
806.53	31.304
806.70	31.177
806.88	31.064
807.05	31.070
807.23	30.962
807.40	31.055
807.58	31.057
807.76	31.169
807.93	31.130
808.11	31.309
808.28	31.382
808.46	31.404
808.63	31.327
808.81	31.469
808.99	31.545
809.16	31.658
809.34	31.580
809.51	31.519
809.69	31.442
809.86	31.458
810.04	31.327
810.21	31.233
810.39	31.274
810.57	31.330
810.74	31.284
810.92	31.256
811.09	31.269
811.27	31.295
811.44	31.357
811.62	31.401
811.79	31.377
811.97	31.354
812.14	31.398
812.32	31.257
812.49	31.270
812.67	31.400
812.84	31.517
813.02	31.604
813.19	31.678
813.37	31.689
813.55	31.407
813.72	31.533
813.90	31.729
814.07	31.769
814.25	31.692
814.42	31.844
814.60	31.720
814.77	31.641
814.95	31.559
815.12	31.524
815.30	31.644
815.47	31.749
815.65	31.713
815.82	31.765
816.00	31.903
816.17	31.891
816.35	31.699
816.52	31.781
816.69	31.848
816.87	32.066
817.04	32.081
817.22	31.950
817.39	32.064
817.57	32.043
817.74	31.887
817.92	31.800
818.09	31.983
818.27	32.083
818.44	32.060
818.62	31.950
818.79	31.862
818.97	31.956
819.14	31.993
819.32	31.991
819.49	32.055
819.66	32.127
819.84	32.122
820.01	32.111
820.19	32.114
820.36	31.963
820.54	32.083
820.71	32.097
820.89	32.104
821.06	32.256
821.23	32.345
821.41	32.238
821.58	32.131
821.76	32.008
821.93	31.901
822.11	31.751
822.28	31.662
822.45	31.513
822.63	31.413
822.80	31.348
822.98	31.278
823.15	31.202
823.33	31.173
823.50	31.136
823.67	31.120
823.85	31.109
824.02	31.145
824.20	31.192
824.37	31.283
824.54	31.379
824.72	31.467
824.89	31.534
825.07	31.599
825.24	31.677
825.41	31.761
825.59	31.825
825.76	31.901
825.94	31.969
826.11	32.028
826.28	32.119
826.46	32.170
826.63	32.199
826.80	32.157
826.98	32.139
827.15	32.093
827.33	32.039
827.50	32.004
827.67	31.931
827.85	31.885
828.02	31.849
828.19	31.809
828.37	31.795
828.54	31.751
828.72	31.777
828.89	31.819
829.06	31.818
829.24	31.887
829.41	31.885
829.58	31.911
829.76	31.951
829.93	32.010
830.10	32.056
830.28	32.052
830.45	32.105
830.62	32.082
830.80	32.095
830.97	32.158
831.14	32.201
831.32	32.343
831.49	32.440
831.66	32.474
831.84	32.568
832.01	32.416
832.18	32.462
832.36	32.424
832.53	32.605
832.70	32.757
832.88	32.808
833.05	32.766
833.22	32.685
833.40	32.587
833.57	32.497
833.74	32.395
833.91	32.451
834.09	32.322
834.26	32.293
834.43	32.210
834.61	32.089
834.78	32.048
834.95	31.957
835.13	31.909
835.30	31.881
835.47	31.874
835.64	31.882
835.82	31.836
835.99	31.890
836.16	31.876
836.34	31.992
836.51	32.029
836.68	31.990
836.85	31.980
837.03	32.004
837.20	32.139
837.37	32.177
837.54	32.085
837.72	32.028
837.89	32.022
838.06	32.045
838.24	31.743
838.41	31.767
838.58	31.728
838.75	31.907
838.93	32.085
839.10	31.964
839.27	32.070
839.44	32.258
839.62	32.474
839.79	32.615
839.96	32.550
840.13	32.714
840.31	32.667
840.48	32.643
840.65	32.558
840.82	32.410
840.99	32.432
841.17	32.266
841.34	32.346
841.51	32.300
841.68	32.335
841.86	32.478
842.03	32.504
842.20	32.523
842.37	32.722
842.55	32.616
842.72	32.582
842.89	32.520
843.06	32.666
843.23	32.400
843.41	32.495
843.58	32.323
843.75	32.432
843.92	32.329
844.09	32.339
844.27	32.303
844.44	32.501
844.61	32.558
844.78	32.756
844.95	32.506
845.13	32.431
845.30	32.215
845.47	32.334
845.64	32.328
845.81	32.401
845.98	32.103
846.16	31.799
846.33	31.819
846.50	32.046
846.67	32.097
846.84	32.563
847.02	32.743
847.19	32.938
847.36	32.816
847.53	32.323
847.70	32.119
847.87	32.606
848.04	32.411
848.22	32.487
848.39	32.226
848.56	32.357
848.73	32.155
848.90	32.073
849.07	32.119
849.25	32.176
849.42	32.473
849.59	32.618
849.76	32.163
849.93	32.400
850.10	32.385
850.27	32.345
850.45	32.291
850.62	32.464
850.79	32.630
850.96	32.335
851.13	32.300
851.30	31.917
851.47	31.758
851.64	32.024
851.82	32.135
851.99	32.010
852.16	32.324
852.33	31.879
852.50	31.874
852.67	31.547
852.84	31.617
853.01	31.416
853.18	32.031
853.35	32.081
853.53	32.267
853.70	32.109
853.87	32.490
854.04	32.455
854.21	33.025
854.38	32.745
854.55	32.788
854.72	32.285
854.89	32.410
855.06	32.293
855.23	32.436
855.41	32.215
855.58	32.341
855.75	32.465
855.92	32.433
856.09	32.079
856.26	32.597
856.43	32.833
856.60	33.157
856.77	33.313
856.94	32.986
857.11	32.979
857.28	33.065
857.45	33.484
857.62	32.947
857.80	32.617
857.97	32.336
858.14	32.055
858.31	31.955
858.48	32.426
858.65	32.252
858.82	32.489
858.99	32.215
859.16	32.111
859.33	31.915
859.50	32.106
859.67	32.602
859.84	32.832
860.01	33.012
860.18	32.897
860.35	32.744
860.52	32.937
860.69	32.626
860.86	32.957
861.03	32.691
861.20	32.196
861.37	32.349
861.54	31.944
861.71	32.013
861.88	32.309
862.05	32.506
862.22	31.946
862.39	31.678
862.56	31.711
862.73	31.631
862.90	32.066
863.07	32.232
863.24	31.846
863.41	32.111
863.58	32.204
863.75	32.019
863.92	31.851
864.09	32.505
864.26	32.743
864.43	33.109
864.60	33.160
864.77	33.175
864.94	33.726
865.11	33.990
865.28	34.118
865.45	34.056
865.62	33.854
865.79	34.066
865.96	33.809
866.13	33.862
866.30	33.490
866.47	32.980
866.64	32.549
866.81	31.987
866.98	32.052
867.15	31.919
867.32	31.590
867.49	31.453
867.66	31.468
867.82	31.628
867.99	31.545
868.16	31.942
868.33	32.370
868.50	32.679
868.67	33.146
868.84	33.462
869.01	33.473
869.18	33.784
869.35	33.963
869.52	34.104
869.69	34.154
869.86	34.353
870.03	34.167
870.19	33.877
870.36	34.069
870.53	33.724
870.70	33.327
870.87	33.243
871.04	33.267
871.21	32.962
871.38	33.220
871.55	33.340
871.72	33.232
871.89	33.416
872.05	33.303
872.22	32.864
872.39	32.832
872.56	33.084
872.73	33.044
872.90	33.287
873.07	33.247
873.24	32.902
873.41	32.744
873.57	32.707
873.74	32.502
873.91	32.772
874.08	32.988
874.25	32.935
874.42	32.318
874.59	32.496
874.76	32.126
874.92	32.401
875.09	32.570
875.26	32.823
875.43	32.852
875.60	32.725
875.77	32.766
875.94	32.978
876.11	33.158
876.27	33.617
876.44	33.593
876.61	33.794
876.78	33.786
876.95	33.668
877.12	33.433
877.28	33.433
877.45	33.503
877.62	33.610
877.79	33.505
877.96	33.502
878.13	33.454
878.29	33.557
878.46	33.458
878.63	33.542
878.80	33.355
878.97	33.334
879.14	33.440
879.30	33.600
879.47	33.840
879.64	33.699
879.81	33.851
879.98	34.001
880.14	34.110
880.31	34.248
880.48	34.426
880.65	34.652
880.82	34.625
880.98	34.395
881.15	34.151
881.32	33.865
881.49	33.717
881.66	33.525
881.82	33.344
881.99	33.178
882.16	33.057
882.33	32.938
882.50	32.832
882.66	32.752
882.83	32.732
883.00	32.717
883.17	32.751
883.33	32.759
883.50	32.825
883.67	32.868
883.84	32.941
884.01	33.021
884.17	33.043
884.34	33.068
884.51	33.123
884.68	33.119
884.84	33.208
885.01	33.206
885.18	33.189
885.35	33.106
885.51	33.167
885.68	33.251
885.85	33.319
886.02	33.377
886.18	33.302
886.35	33.289
886.52	33.246
886.69	33.041
886.85	33.013
887.02	33.171
887.19	33.215
887.35	33.331
887.52	33.311
887.69	33.297
887.86	33.378
888.02	33.582
888.19	33.580
888.36	34.890
888.53	35.358
888.69	33.911
888.86	32.905
889.03	33.546
>>>>>End Spectral Data<<<<<
