OOIBase32 Version 2.0.6.5 Data File
++++++++++++++++++++++++++++++++++++
Date: 11-17-2016, 11:09:17
User: Valued Ocean Optics Customer
Spectrometer Serial Number: USB4C01507
Spectrometer Channel: Master
Integration Time (msec): 49
Spectra Averaged: 25
Boxcar Smoothing: 5
Correct for Electrical Dark: Enabled
Time Normalized: Disabled
Dual-beam Reference: Disabled
Reference Channel: Master
Temperature: Not acquired
Spectrometer Type: S4000
ADC Type: USB4000
Number of Pixels in File: 3648
Graph Title: 
>>>>>Begin Spectral Data<<<<<
178.53	1611.326
178.74	2209.654
178.96	133.273
179.18	-74.777
179.39	467.967
179.61	-218.590
179.82	113.641
180.04	71.216
180.25	179.518
180.47	-74.386
180.69	141.653
180.90	804.702
181.12	-307.819
181.33	-18.897
181.55	39.746
181.76	-10526.920
181.98	29.501
182.20	-247.866
182.41	6.193
182.63	462.537
182.84	59.822
183.06	47.232
183.27	43.840
183.49	50.450
183.71	58.547
183.92	51.140
184.14	37.932
184.35	50.632
184.57	44.295
184.78	51.261
185.00	58.050
185.21	62.808
185.43	62.259
185.65	62.324
185.86	65.092
186.08	65.545
186.29	64.267
186.51	64.852
186.72	62.422
186.94	58.143
187.15	61.341
187.37	55.982
187.58	55.866
187.80	60.919
188.02	61.267
188.23	56.723
188.45	56.570
188.66	58.819
188.88	60.866
189.09	60.320
189.31	66.652
189.52	63.837
189.74	65.721
189.95	68.880
190.17	76.464
190.38	81.922
190.60	81.370
190.82	83.678
191.03	71.478
191.25	66.556
191.46	65.748
191.68	60.091
191.89	59.435
192.11	49.750
192.32	42.285
192.54	32.950
192.75	28.090
192.97	35.492
193.18	30.304
193.40	37.467
193.61	34.481
193.83	32.112
194.04	32.274
194.26	35.707
194.48	33.295
194.69	38.995
194.91	38.990
195.12	40.426
195.34	36.944
195.55	37.213
195.77	28.579
195.98	34.542
196.20	33.525
196.41	29.514
196.63	26.179
196.84	36.253
197.06	33.883
197.27	35.457
197.49	37.463
197.70	32.849
197.92	28.187
198.13	30.297
198.35	22.090
198.56	21.111
198.78	21.374
198.99	19.927
199.21	14.715
199.42	14.126
199.64	13.303
199.85	8.536
200.07	14.623
200.28	20.505
200.50	24.724
200.71	31.054
200.93	33.302
201.14	34.066
201.36	38.311
201.57	46.077
201.79	46.646
202.00	47.057
202.22	45.925
202.43	44.277
202.65	41.471
202.86	35.783
203.08	30.202
203.29	28.271
203.51	28.977
203.72	28.951
203.94	24.155
204.15	24.177
204.37	23.952
204.58	26.255
204.80	26.610
205.01	29.257
205.22	29.388
205.44	32.516
205.65	28.959
205.87	29.248
206.08	28.405
206.30	28.368
206.51	24.871
206.73	25.186
206.94	23.550
207.16	19.414
207.37	16.887
207.59	19.735
207.80	20.459
208.02	24.246
208.23	25.753
208.45	24.669
208.66	18.413
208.88	19.600
209.09	20.297
209.30	19.054
209.52	20.092
209.73	21.000
209.95	24.208
210.16	21.170
210.38	21.593
210.59	19.284
210.81	16.257
211.02	19.045
211.24	16.978
211.45	13.213
211.66	16.486
211.88	18.637
212.09	19.470
212.31	17.665
212.52	18.423
212.74	17.554
212.95	14.261
213.17	15.588
213.38	19.166
213.60	22.672
213.81	26.107
214.02	25.285
214.24	22.636
214.45	19.101
214.67	16.718
214.88	15.990
215.10	15.172
215.31	16.275
215.53	16.326
215.74	14.398
215.95	13.493
216.17	11.191
216.38	6.586
216.60	5.905
216.81	8.426
217.03	9.305
217.24	9.233
217.45	11.134
217.67	11.511
217.88	13.001
218.10	13.248
218.31	14.566
218.53	14.202
218.74	16.846
218.95	14.915
219.17	13.379
219.38	13.258
219.60	14.697
219.81	12.712
220.03	13.889
220.24	13.188
220.45	11.217
220.67	8.598
220.88	9.684
221.10	9.548
221.31	10.563
221.53	10.786
221.74	8.430
221.95	7.356
222.17	6.660
222.38	6.298
222.60	6.353
222.81	6.079
223.02	6.712
223.24	6.188
223.45	6.723
223.67	7.131
223.88	6.651
224.09	7.796
224.31	8.134
224.52	9.527
224.74	8.155
224.95	7.944
225.16	8.436
225.38	8.014
225.59	7.526
225.81	6.695
226.02	5.996
226.23	5.599
226.45	5.775
226.66	5.127
226.88	4.655
227.09	5.071
227.30	4.573
227.52	4.303
227.73	4.115
227.95	3.937
228.16	3.950
228.37	3.895
228.59	3.986
228.80	3.942
229.02	3.907
229.23	3.844
229.44	3.772
229.66	3.809
229.87	3.801
230.08	3.762
230.30	3.879
230.51	3.945
230.73	4.027
230.94	4.051
231.15	3.840
231.37	3.987
231.58	4.073
231.80	4.165
232.01	4.148
232.22	4.259
232.44	4.560
232.65	4.457
232.86	4.026
233.08	4.087
233.29	3.954
233.51	4.312
233.72	4.198
233.93	4.142
234.15	4.062
234.36	3.951
234.57	3.901
234.79	3.852
235.00	4.081
235.21	4.539
235.43	4.717
235.64	4.499
235.86	4.494
236.07	4.520
236.28	4.501
236.50	4.369
236.71	4.741
236.92	4.661
237.14	4.810
237.35	4.745
237.56	4.572
237.78	4.486
237.99	4.783
238.20	4.617
238.42	4.998
238.63	4.559
238.84	4.835
239.06	4.676
239.27	4.502
239.48	4.360
239.70	4.246
239.91	4.113
240.13	3.872
240.34	3.879
240.55	3.932
240.77	3.649
240.98	3.806
241.19	3.745
241.41	3.496
241.62	3.604
241.83	3.567
242.05	3.603
242.26	3.672
242.47	3.691
242.69	3.680
242.90	3.740
243.11	3.845
243.33	3.895
243.54	3.895
243.75	4.064
243.97	4.009
244.18	4.221
244.39	4.243
244.61	4.166
244.82	4.354
245.03	4.250
245.24	4.139
245.46	4.100
245.67	3.940
245.88	3.924
246.10	3.916
246.31	3.888
246.52	3.783
246.74	3.721
246.95	3.739
247.16	3.719
247.38	3.727
247.59	3.751
247.80	3.722
248.02	3.788
248.23	3.780
248.44	3.777
248.66	3.866
248.87	3.916
249.08	4.011
249.29	4.062
249.51	4.221
249.72	4.348
249.93	4.350
250.15	4.558
250.36	4.482
250.57	4.429
250.79	4.675
251.00	4.573
251.21	4.610
251.42	4.575
251.64	4.514
251.85	4.339
252.06	4.373
252.28	4.275
252.49	4.247
252.70	4.226
252.91	4.362
253.13	4.250
253.34	4.210
253.55	4.206
253.77	4.258
253.98	4.381
254.19	4.377
254.40	4.284
254.62	4.400
254.83	4.124
255.04	4.330
255.26	4.065
255.47	3.927
255.68	4.113
255.89	4.239
256.11	4.292
256.32	4.060
256.53	4.227
256.75	4.152
256.96	4.146
257.17	4.380
257.38	4.481
257.60	4.644
257.81	4.590
258.02	4.379
258.23	4.199
258.45	4.041
258.66	4.005
258.87	3.834
259.09	3.784
259.30	3.735
259.51	3.665
259.72	3.556
259.94	3.512
260.15	3.505
260.36	3.544
260.57	3.577
260.79	3.596
261.00	3.571
261.21	3.587
261.42	3.605
261.64	3.651
261.85	3.629
262.06	3.721
262.27	3.877
262.49	3.953
262.70	4.018
262.91	3.883
263.12	3.873
263.34	4.030
263.55	3.983
263.76	3.867
263.97	3.881
264.19	4.017
264.40	3.988
264.61	3.855
264.82	3.833
265.04	3.746
265.25	3.765
265.46	3.742
265.67	3.621
265.88	3.694
266.10	3.744
266.31	3.726
266.52	3.693
266.73	3.795
266.95	3.719
267.16	3.701
267.37	3.629
267.58	3.628
267.80	3.680
268.01	3.657
268.22	3.654
268.43	3.740
268.64	3.715
268.86	3.739
269.07	3.624
269.28	3.623
269.49	3.596
269.71	3.682
269.92	3.602
270.13	3.601
270.34	3.646
270.55	3.664
270.77	3.728
270.98	3.736
271.19	3.766
271.40	3.741
271.61	3.727
271.83	3.760
272.04	3.680
272.25	3.775
272.46	3.706
272.68	3.789
272.89	3.775
273.10	3.688
273.31	3.601
273.52	3.606
273.74	3.538
273.95	3.522
274.16	3.558
274.37	3.578
274.58	3.518
274.80	3.573
275.01	3.503
275.22	3.575
275.43	3.716
275.64	3.838
275.86	3.741
276.07	3.833
276.28	3.960
276.49	3.848
276.70	3.771
276.91	3.822
277.13	3.764
277.34	3.744
277.55	3.806
277.76	3.636
277.97	3.548
278.19	3.569
278.40	3.682
278.61	3.567
278.82	3.644
279.03	3.655
279.24	3.633
279.46	3.688
279.67	3.701
279.88	3.488
280.09	3.565
280.30	3.670
280.52	3.695
280.73	3.633
280.94	3.715
281.15	3.715
281.36	3.730
281.57	3.782
281.79	3.821
282.00	3.752
282.21	3.772
282.42	3.701
282.63	3.694
282.84	3.642
283.06	3.584
283.27	3.501
283.48	3.475
283.69	3.450
283.90	3.356
284.11	3.260
284.32	3.256
284.54	3.321
284.75	3.322
284.96	3.262
285.17	3.302
285.38	3.320
285.59	3.386
285.81	3.449
286.02	3.572
286.23	3.619
286.44	3.702
286.65	3.828
286.86	3.825
287.07	3.843
287.29	3.897
287.50	3.903
287.71	3.941
287.92	3.995
288.13	3.962
288.34	3.929
288.55	4.002
288.77	4.010
288.98	3.925
289.19	3.968
289.40	4.029
289.61	4.172
289.82	4.207
290.03	4.244
290.24	4.232
290.46	4.225
290.67	4.276
290.88	4.321
291.09	4.336
291.30	4.405
291.51	4.487
291.72	4.572
291.93	4.579
292.15	4.649
292.36	4.799
292.57	4.951
292.78	4.942
292.99	4.878
293.20	4.980
293.41	4.946
293.62	5.000
293.84	4.998
294.05	5.070
294.26	4.981
294.47	4.963
294.68	4.894
294.89	4.925
295.10	5.045
295.31	5.169
295.52	5.107
295.73	5.148
295.95	5.193
296.16	5.226
296.37	5.255
296.58	5.318
296.79	5.388
297.00	5.423
297.21	5.353
297.42	5.351
297.63	5.380
297.84	5.394
298.06	5.384
298.27	5.398
298.48	5.467
298.69	5.387
298.90	5.459
299.11	5.509
299.32	5.574
299.53	5.668
299.74	5.752
299.95	5.756
300.16	5.755
300.38	5.858
300.59	5.821
300.80	5.802
301.01	5.992
301.22	5.967
301.43	5.951
301.64	5.959
301.85	5.984
302.06	5.965
302.27	5.968
302.48	6.041
302.69	6.059
302.91	6.189
303.12	6.286
303.33	6.273
303.54	6.361
303.75	6.364
303.96	6.417
304.17	6.427
304.38	6.514
304.59	6.613
304.80	6.659
305.01	6.741
305.22	6.717
305.43	6.756
305.64	6.755
305.85	6.694
306.06	6.838
306.28	6.903
306.49	6.996
306.70	6.978
306.91	6.982
307.12	6.995
307.33	6.999
307.54	7.083
307.75	7.050
307.96	7.118
308.17	7.232
308.38	7.220
308.59	7.217
308.80	7.243
309.01	7.328
309.22	7.367
309.43	7.410
309.64	7.441
309.85	7.472
310.06	7.516
310.27	7.610
310.48	7.673
310.70	7.720
310.91	7.741
311.12	7.685
311.33	7.712
311.54	7.713
311.75	7.717
311.96	7.782
312.17	7.806
312.38	7.842
312.59	7.837
312.80	7.849
313.01	7.893
313.22	7.961
313.43	8.082
313.64	8.080
313.85	8.133
314.06	8.280
314.27	8.309
314.48	8.433
314.69	8.580
314.90	8.673
315.11	8.677
315.32	8.674
315.53	8.748
315.74	8.795
315.95	8.875
316.16	8.911
316.37	8.912
316.58	9.013
316.79	9.000
317.00	9.019
317.21	8.956
317.42	9.005
317.63	9.182
317.84	9.207
318.05	9.242
318.26	9.345
318.47	9.457
318.68	9.588
318.89	9.633
319.10	9.717
319.31	9.688
319.52	9.845
319.73	9.927
319.94	9.954
320.15	10.007
320.36	10.159
320.57	10.189
320.78	10.294
320.99	10.289
321.20	10.375
321.41	10.487
321.62	10.551
321.83	10.585
322.04	10.664
322.25	10.729
322.46	10.781
322.67	10.835
322.88	10.935
323.09	10.961
323.30	10.969
323.51	10.970
323.72	11.026
323.93	11.095
324.14	11.218
324.35	11.280
324.56	11.302
324.77	11.348
324.98	11.395
325.19	11.431
325.40	11.508
325.61	11.642
325.82	11.744
326.03	11.840
326.24	11.932
326.45	11.955
326.65	11.951
326.86	11.964
327.07	12.092
327.28	12.197
327.49	12.293
327.70	12.299
327.91	12.355
328.12	12.412
328.33	12.398
328.54	12.443
328.75	12.536
328.96	12.643
329.17	12.738
329.38	12.692
329.59	12.647
329.80	12.694
330.01	12.798
330.22	12.819
330.43	12.849
330.64	12.916
330.85	12.992
331.05	13.018
331.26	13.072
331.47	13.107
331.68	13.242
331.89	13.384
332.10	13.427
332.31	13.567
332.52	13.657
332.73	13.720
332.94	13.768
333.15	13.799
333.36	13.912
333.57	13.986
333.78	14.085
333.99	14.165
334.19	14.191
334.40	14.326
334.61	14.343
334.82	14.395
335.03	14.474
335.24	14.558
335.45	14.683
335.66	14.710
335.87	14.793
336.08	14.881
336.29	14.956
336.50	15.031
336.71	15.065
336.91	15.118
337.12	15.160
337.33	15.256
337.54	15.349
337.75	15.423
337.96	15.466
338.17	15.528
338.38	15.529
338.59	15.600
338.80	15.629
339.01	15.690
339.21	15.740
339.42	15.821
339.63	15.831
339.84	15.893
340.05	15.934
340.26	15.973
340.47	16.025
340.68	16.141
340.89	16.155
341.10	16.203
341.30	16.241
341.51	16.293
341.72	16.390
341.93	16.485
342.14	16.478
342.35	16.567
342.56	16.626
342.77	16.682
342.98	16.695
343.18	16.746
343.39	16.829
343.60	16.880
343.81	16.959
344.02	16.953
344.23	17.046
344.44	17.111
344.65	17.094
344.85	17.113
345.06	17.233
345.27	17.338
345.48	17.392
345.69	17.465
345.90	17.548
346.11	17.576
346.32	17.665
346.52	17.645
346.73	17.707
346.94	17.768
347.15	17.875
347.36	17.835
347.57	17.870
347.78	17.939
347.98	18.040
348.19	18.035
348.40	18.104
348.61	18.199
348.82	18.285
349.03	18.430
349.24	18.511
349.44	18.540
349.65	18.652
349.86	18.703
350.07	18.776
350.28	18.746
350.49	18.817
350.70	18.850
350.90	18.833
351.11	18.886
351.32	18.875
351.53	18.954
351.74	19.040
351.95	19.063
352.15	19.110
352.36	19.139
352.57	19.284
352.78	19.416
352.99	19.500
353.20	19.618
353.40	19.704
353.61	19.729
353.82	19.756
354.03	19.843
354.24	19.903
354.45	19.966
354.65	20.067
354.86	20.078
355.07	20.130
355.28	20.188
355.49	20.212
355.70	20.230
355.90	20.330
356.11	20.351
356.32	20.397
356.53	20.491
356.74	20.563
356.94	20.542
357.15	20.664
357.36	20.686
357.57	20.750
357.78	20.820
357.99	20.843
358.19	20.862
358.40	20.931
358.61	20.961
358.82	21.030
359.03	21.031
359.23	21.153
359.44	21.145
359.65	21.182
359.86	21.235
360.07	21.319
360.27	21.471
360.48	21.557
360.69	21.694
360.90	21.757
361.11	21.902
361.31	21.984
361.52	22.068
361.73	22.156
361.94	22.243
362.15	22.271
362.35	22.290
362.56	22.318
362.77	22.344
362.98	22.372
363.18	22.438
363.39	22.366
363.60	22.451
363.81	22.428
364.02	22.479
364.22	22.569
364.43	22.624
364.64	22.684
364.85	22.716
365.05	22.793
365.26	22.834
365.47	22.885
365.68	22.957
365.89	22.967
366.09	23.097
366.30	23.132
366.51	23.157
366.72	23.218
366.92	23.313
367.13	23.371
367.34	23.410
367.55	23.443
367.75	23.522
367.96	23.569
368.17	23.625
368.38	23.645
368.58	23.629
368.79	23.643
369.00	23.729
369.21	23.745
369.41	23.806
369.62	23.849
369.83	23.903
370.04	23.926
370.24	23.972
370.45	24.057
370.66	24.104
370.87	24.174
371.07	24.205
371.28	24.257
371.49	24.314
371.70	24.341
371.90	24.392
372.11	24.431
372.32	24.503
372.53	24.573
372.73	24.627
372.94	24.647
373.15	24.755
373.36	24.835
373.56	24.897
373.77	24.945
373.98	25.046
374.19	25.106
374.39	25.160
374.60	25.200
374.81	25.242
375.01	25.302
375.22	25.388
375.43	25.391
375.64	25.455
375.84	25.487
376.05	25.559
376.26	25.559
376.46	25.614
376.67	25.668
376.88	25.721
377.09	25.773
377.29	25.841
377.50	25.856
377.71	25.975
377.91	26.017
378.12	26.073
378.33	26.144
378.54	26.205
378.74	26.269
378.95	26.352
379.16	26.402
379.36	26.446
379.57	26.459
379.78	26.549
379.99	26.612
380.19	26.615
380.40	26.620
380.61	26.628
380.81	26.666
381.02	26.706
381.23	26.719
381.43	26.750
381.64	26.841
381.85	26.884
382.05	26.921
382.26	26.957
382.47	27.050
382.67	27.146
382.88	27.185
383.09	27.306
383.30	27.393
383.50	27.508
383.71	27.597
383.92	27.622
384.12	27.670
384.33	27.714
384.54	27.774
384.74	27.870
384.95	27.919
385.16	27.973
385.36	27.983
385.57	28.020
385.78	28.057
385.98	28.112
386.19	28.165
386.40	28.241
386.60	28.318
386.81	28.364
387.02	28.396
387.22	28.437
387.43	28.550
387.64	28.634
387.84	28.671
388.05	28.738
388.26	28.809
388.46	28.870
388.67	28.928
388.88	28.984
389.08	29.038
389.29	29.095
389.49	29.163
389.70	29.175
389.91	29.213
390.11	29.252
390.32	29.281
390.53	29.327
390.73	29.403
390.94	29.498
391.15	29.552
391.35	29.611
391.56	29.700
391.77	29.793
391.97	29.861
392.18	29.949
392.38	30.050
392.59	30.118
392.80	30.166
393.00	30.215
393.21	30.248
393.42	30.324
393.62	30.399
393.83	30.421
394.04	30.433
394.24	30.446
394.45	30.441
394.65	30.470
394.86	30.526
395.07	30.563
395.27	30.590
395.48	30.642
395.68	30.684
395.89	30.688
396.10	30.737
396.30	30.808
396.51	30.886
396.72	30.982
396.92	31.030
397.13	31.064
397.33	31.128
397.54	31.185
397.75	31.252
397.95	31.292
398.16	31.361
398.36	31.420
398.57	31.469
398.78	31.540
398.98	31.586
399.19	31.664
399.39	31.731
399.60	31.762
399.81	31.844
400.01	31.887
400.22	31.914
400.42	32.013
400.63	32.081
400.84	32.149
401.04	32.186
401.25	32.261
401.45	32.323
401.66	32.360
401.86	32.464
402.07	32.494
402.28	32.551
402.48	32.661
402.69	32.690
402.89	32.736
403.10	32.806
403.31	32.883
403.51	32.935
403.72	32.999
403.92	33.056
404.13	33.105
404.33	33.144
404.54	33.206
404.75	33.262
404.95	33.320
405.16	33.371
405.36	33.423
405.57	33.469
405.77	33.545
405.98	33.572
406.18	33.633
406.39	33.635
406.60	33.693
406.80	33.736
407.01	33.786
407.21	33.783
407.42	33.868
407.62	33.896
407.83	33.932
408.03	33.923
408.24	33.969
408.45	34.010
408.65	34.081
408.86	34.140
409.06	34.141
409.27	34.159
409.47	34.244
409.68	34.234
409.88	34.296
410.09	34.347
410.29	34.418
410.50	34.473
410.71	34.532
410.91	34.604
411.12	34.649
411.32	34.736
411.53	34.785
411.73	34.831
411.94	34.874
412.14	34.919
412.35	34.974
412.55	35.004
412.76	35.041
412.96	35.077
413.17	35.115
413.37	35.186
413.58	35.257
413.78	35.300
413.99	35.367
414.19	35.486
414.40	35.545
414.61	35.601
414.81	35.669
415.02	35.693
415.22	35.756
415.43	35.819
415.63	35.858
415.84	35.904
416.04	36.008
416.25	36.063
416.45	36.100
416.66	36.150
416.86	36.212
417.07	36.239
417.27	36.283
417.48	36.329
417.68	36.398
417.89	36.447
418.09	36.500
418.30	36.535
418.50	36.561
418.71	36.615
418.91	36.660
419.12	36.728
419.32	36.808
419.53	36.899
419.73	36.976
419.94	37.011
420.14	37.011
420.34	37.028
420.55	37.031
420.75	37.077
420.96	37.102
421.16	37.139
421.37	37.152
421.57	37.216
421.78	37.241
421.98	37.272
422.19	37.309
422.39	37.412
422.60	37.520
422.80	37.588
423.01	37.646
423.21	37.661
423.42	37.679
423.62	37.673
423.83	37.636
424.03	37.653
424.23	37.656
424.44	37.682
424.64	37.703
424.85	37.714
425.05	37.763
425.26	37.806
425.46	37.878
425.67	37.946
425.87	38.058
426.08	38.140
426.28	38.194
426.48	38.289
426.69	38.348
426.89	38.407
427.10	38.455
427.30	38.511
427.51	38.543
427.71	38.553
427.92	38.553
428.12	38.569
428.32	38.602
428.53	38.646
428.73	38.649
428.94	38.672
429.14	38.677
429.35	38.672
429.55	38.668
429.76	38.661
429.96	38.695
430.16	38.761
430.37	38.774
430.57	38.800
430.78	38.854
430.98	38.891
431.19	38.921
431.39	38.968
431.59	39.012
431.80	39.031
432.00	39.033
432.21	39.024
432.41	39.001
432.61	39.008
432.82	39.035
433.02	39.054
433.23	39.083
433.43	39.127
433.64	39.170
433.84	39.232
434.04	39.299
434.25	39.400
434.45	39.479
434.66	39.583
434.86	39.659
435.06	39.713
435.27	39.770
435.47	39.848
435.68	39.868
435.88	39.891
436.08	39.861
436.29	39.850
436.49	39.837
436.70	39.851
436.90	39.845
437.10	39.898
437.31	39.938
437.51	39.992
437.71	40.008
437.92	40.049
438.12	40.032
438.33	40.073
438.53	40.108
438.73	40.124
438.94	40.171
439.14	40.221
439.35	40.257
439.55	40.337
439.75	40.344
439.96	40.406
440.16	40.438
440.36	40.497
440.57	40.511
440.77	40.568
440.97	40.620
441.18	40.663
441.38	40.708
441.59	40.730
441.79	40.701
441.99	40.773
442.20	40.755
442.40	40.802
442.60	40.844
442.81	40.927
443.01	40.953
443.21	41.008
443.42	41.028
443.62	41.020
443.83	41.047
444.03	41.072
444.23	41.064
444.44	41.105
444.64	41.135
444.84	41.142
445.05	41.135
445.25	41.131
445.45	41.114
445.66	41.112
445.86	41.127
446.06	41.159
446.27	41.179
446.47	41.193
446.67	41.215
446.88	41.235
447.08	41.276
447.28	41.339
447.49	41.399
447.69	41.476
447.89	41.533
448.10	41.610
448.30	41.630
448.50	41.674
448.71	41.715
448.91	41.734
449.11	41.711
449.32	41.736
449.52	41.717
449.72	41.732
449.93	41.725
450.13	41.774
450.33	41.795
450.53	41.807
450.74	41.830
450.94	41.838
451.14	41.863
451.35	41.934
451.55	41.929
451.75	41.947
451.96	41.973
452.16	41.962
452.36	41.957
452.57	41.972
452.77	41.992
452.97	42.011
453.17	42.054
453.38	42.076
453.58	42.085
453.78	42.098
453.99	42.133
454.19	42.135
454.39	42.190
454.59	42.223
454.80	42.232
455.00	42.260
455.20	42.304
455.41	42.337
455.61	42.359
455.81	42.408
456.01	42.481
456.22	42.480
456.42	42.539
456.62	42.583
456.83	42.615
457.03	42.639
457.23	42.639
457.43	42.638
457.64	42.646
457.84	42.697
458.04	42.766
458.25	42.798
458.45	42.874
458.65	42.867
458.85	42.850
459.06	42.809
459.26	42.785
459.46	42.784
459.66	42.798
459.87	42.779
460.07	42.789
460.27	42.754
460.47	42.735
460.68	42.733
460.88	42.736
461.08	42.765
461.28	42.820
461.49	42.870
461.69	42.920
461.89	42.928
462.09	42.982
462.30	42.965
462.50	43.001
462.70	43.032
462.90	43.015
463.11	43.053
463.31	43.087
463.51	43.111
463.71	43.142
463.92	43.172
464.12	43.192
464.32	43.211
464.52	43.231
464.72	43.247
464.93	43.260
465.13	43.291
465.33	43.307
465.53	43.289
465.74	43.267
465.94	43.263
466.14	43.250
466.34	43.254
466.54	43.206
466.75	43.169
466.95	43.167
467.15	43.169
467.35	43.159
467.56	43.183
467.76	43.224
467.96	43.260
468.16	43.303
468.36	43.326
468.57	43.367
468.77	43.450
468.97	43.514
469.17	43.532
469.37	43.577
469.58	43.611
469.78	43.616
469.98	43.628
470.18	43.669
470.38	43.683
470.59	43.723
470.79	43.776
470.99	43.796
471.19	43.814
471.39	43.884
471.60	43.929
471.80	43.981
472.00	44.000
472.20	44.013
472.40	44.001
472.61	44.012
472.81	44.021
473.01	44.004
473.21	44.029
473.41	44.061
473.61	44.028
473.82	44.029
474.02	44.026
474.22	44.058
474.42	44.079
474.62	44.165
474.82	44.220
475.03	44.301
475.23	44.337
475.43	44.383
475.63	44.440
475.83	44.508
476.03	44.514
476.24	44.515
476.44	44.547
476.64	44.599
476.84	44.587
477.04	44.594
477.24	44.580
477.45	44.598
477.65	44.612
477.85	44.620
478.05	44.611
478.25	44.656
478.45	44.683
478.65	44.711
478.86	44.721
479.06	44.733
479.26	44.745
479.46	44.757
479.66	44.774
479.86	44.777
480.06	44.781
480.27	44.801
480.47	44.790
480.67	44.816
480.87	44.802
481.07	44.828
481.27	44.885
481.47	44.952
481.68	45.032
481.88	45.167
482.08	45.357
482.28	45.582
482.48	45.819
482.68	45.997
482.88	46.293
483.08	46.881
483.29	47.170
483.49	46.951
483.69	46.718
483.89	46.615
484.09	46.543
484.29	46.463
484.49	46.406
484.69	46.348
484.89	46.299
485.10	46.128
485.30	45.607
485.50	45.191
485.70	45.329
485.90	45.584
486.10	45.727
486.30	45.848
486.50	45.953
486.70	45.989
486.90	45.993
487.11	46.005
487.31	45.987
487.51	45.958
487.71	45.926
487.91	45.872
488.11	45.842
488.31	45.817
488.51	45.776
488.71	45.745
488.91	45.742
489.11	45.754
489.32	45.783
489.52	45.841
489.72	45.940
489.92	46.079
490.12	46.230
490.32	46.317
490.52	46.353
490.72	46.329
490.92	46.285
491.12	46.211
491.32	46.155
491.52	46.096
491.72	46.064
491.92	46.016
492.13	45.946
492.33	45.884
492.53	45.850
492.73	45.830
492.93	45.842
493.13	45.876
493.33	45.944
493.53	45.999
493.73	46.048
493.93	46.079
494.13	46.099
494.33	46.101
494.53	46.122
494.73	46.124
494.93	46.130
495.13	46.170
495.33	46.176
495.53	46.181
495.73	46.204
495.94	46.224
496.14	46.255
496.34	46.267
496.54	46.286
496.74	46.322
496.94	46.358
497.14	46.366
497.34	46.357
497.54	46.359
497.74	46.376
497.94	46.383
498.14	46.390
498.34	46.377
498.54	46.393
498.74	46.393
498.94	46.381
499.14	46.377
499.34	46.388
499.54	46.398
499.74	46.442
499.94	46.446
500.14	46.454
500.34	46.479
500.54	46.514
500.74	46.551
500.94	46.600
501.14	46.605
501.34	46.598
501.54	46.598
501.74	46.608
501.94	46.601
502.14	46.622
502.34	46.661
502.54	46.659
502.74	46.669
502.94	46.644
503.14	46.659
503.34	46.697
503.54	46.744
503.74	46.762
503.94	46.771
504.14	46.774
504.34	46.795
504.54	46.778
504.74	46.806
504.94	46.817
505.14	46.852
505.34	46.844
505.54	46.854
505.74	46.861
505.94	46.888
506.14	46.942
506.34	46.945
506.54	46.948
506.74	46.997
506.94	47.011
507.14	46.998
507.34	47.010
507.54	47.008
507.74	47.001
507.94	47.005
508.14	47.002
508.34	46.986
508.54	47.025
508.74	47.046
508.94	47.066
509.13	47.089
509.33	47.154
509.53	47.172
509.73	47.213
509.93	47.240
510.13	47.260
510.33	47.314
510.53	47.349
510.73	47.382
510.93	47.409
511.13	47.418
511.33	47.441
511.53	47.425
511.73	47.438
511.93	47.434
512.13	47.441
512.33	47.448
512.53	47.429
512.73	47.421
512.92	47.415
513.12	47.409
513.32	47.415
513.52	47.426
513.72	47.437
513.92	47.437
514.12	47.474
514.32	47.489
514.52	47.505
514.72	47.508
514.92	47.510
515.12	47.533
515.32	47.533
515.52	47.533
515.71	47.541
515.91	47.589
516.11	47.626
516.31	47.639
516.51	47.668
516.71	47.687
516.91	47.761
517.11	47.827
517.31	47.843
517.51	47.872
517.71	47.882
517.90	47.883
518.10	47.847
518.30	47.835
518.50	47.819
518.70	47.806
518.90	47.809
519.10	47.779
519.30	47.754
519.50	47.757
519.69	47.744
519.89	47.772
520.09	47.789
520.29	47.807
520.49	47.839
520.69	47.867
520.89	47.880
521.09	47.889
521.29	47.898
521.48	47.921
521.68	47.903
521.88	47.931
522.08	47.905
522.28	47.902
522.48	47.919
522.68	47.951
522.88	47.964
523.07	48.004
523.27	48.028
523.47	48.065
523.67	48.073
523.87	48.135
524.07	48.175
524.27	48.226
524.47	48.260
524.66	48.295
524.86	48.295
525.06	48.301
525.26	48.306
525.46	48.326
525.66	48.352
525.85	48.385
526.05	48.377
526.25	48.424
526.45	48.508
526.65	48.601
526.85	48.756
527.05	48.968
527.24	49.137
527.44	49.214
527.64	49.283
527.84	49.313
528.04	49.279
528.24	49.214
528.43	49.131
528.63	49.047
528.83	48.986
529.03	48.896
529.23	48.805
529.43	48.721
529.62	48.659
529.82	48.577
530.02	48.492
530.22	48.461
530.42	48.482
530.62	48.526
530.81	48.576
531.01	48.609
531.21	48.659
531.41	48.698
531.61	48.798
531.80	48.909
532.00	48.973
532.20	49.002
532.40	48.999
532.60	49.001
532.79	48.937
532.99	48.891
533.19	48.855
533.39	48.830
533.59	48.791
533.78	48.722
533.98	48.669
534.18	48.623
534.38	48.610
534.58	48.624
534.77	48.649
534.97	48.751
535.17	48.844
535.37	48.940
535.57	48.998
535.76	49.009
535.96	49.002
536.16	48.970
536.36	48.940
536.56	48.911
536.75	48.876
536.95	48.839
537.15	48.804
537.35	48.753
537.54	48.713
537.74	48.698
537.94	48.704
538.14	48.735
538.34	48.772
538.53	48.857
538.73	48.907
538.93	48.970
539.13	49.032
539.32	49.141
539.52	49.270
539.72	49.409
539.92	49.508
540.11	49.565
540.31	49.587
540.51	49.554
540.71	49.462
540.90	49.372
541.10	49.294
541.30	49.250
541.50	49.196
541.69	49.168
541.89	49.120
542.09	49.085
542.29	49.060
542.48	49.014
542.68	48.997
542.88	49.022
543.08	49.071
543.27	49.129
543.47	49.149
543.67	49.175
543.87	49.162
544.06	49.147
544.26	49.124
544.46	49.110
544.65	49.127
544.85	49.134
545.05	49.146
545.25	49.183
545.44	49.210
545.64	49.231
545.84	49.242
546.04	49.233
546.23	49.207
546.43	49.165
546.63	49.133
546.82	49.118
547.02	49.126
547.22	49.148
547.42	49.115
547.61	49.087
547.81	49.080
548.01	49.051
548.20	49.048
548.40	49.076
548.60	49.127
548.79	49.150
548.99	49.162
549.19	49.157
549.39	49.130
549.58	49.147
549.78	49.164
549.98	49.159
550.17	49.170
550.37	49.187
550.57	49.197
550.76	49.172
550.96	49.203
551.16	49.230
551.35	49.246
551.55	49.283
551.75	49.331
551.94	49.329
552.14	49.327
552.34	49.294
552.53	49.289
552.73	49.260
552.93	49.273
553.13	49.260
553.32	49.255
553.52	49.267
553.72	49.247
553.91	49.219
554.11	49.197
554.31	49.228
554.50	49.265
554.70	49.270
554.89	49.296
555.09	49.298
555.29	49.310
555.48	49.328
555.68	49.323
555.88	49.338
556.07	49.331
556.27	49.376
556.47	49.371
556.66	49.377
556.86	49.403
557.06	49.401
557.25	49.426
557.45	49.421
557.65	49.415
557.84	49.424
558.04	49.419
558.23	49.468
558.43	49.468
558.63	49.459
558.82	49.458
559.02	49.453
559.22	49.462
559.41	49.447
559.61	49.463
559.81	49.450
560.00	49.442
560.20	49.457
560.39	49.439
560.59	49.421
560.79	49.448
560.98	49.446
561.18	49.438
561.37	49.476
561.57	49.512
561.77	49.518
561.96	49.512
562.16	49.520
562.36	49.549
562.55	49.591
562.75	49.643
562.94	49.660
563.14	49.684
563.34	49.697
563.53	49.680
563.73	49.696
563.92	49.714
564.12	49.785
564.32	49.820
564.51	49.822
564.71	49.807
564.90	49.837
565.10	49.837
565.29	49.855
565.49	49.863
565.69	49.855
565.88	49.819
566.08	49.821
566.27	49.783
566.47	49.768
566.67	49.759
566.86	49.760
567.06	49.716
567.25	49.700
567.45	49.699
567.64	49.712
567.84	49.746
568.04	49.766
568.23	49.773
568.43	49.816
568.62	49.857
568.82	49.861
569.01	49.873
569.21	49.902
569.41	49.949
569.60	49.956
569.80	49.965
569.99	49.987
570.19	50.023
570.38	50.030
570.58	50.052
570.77	50.046
570.97	50.077
571.17	50.087
571.36	50.110
571.56	50.104
571.75	50.078
571.95	50.058
572.14	50.036
572.34	50.047
572.53	50.074
572.73	50.066
572.92	50.068
573.12	50.058
573.31	50.051
573.51	50.040
573.70	50.039
573.90	50.080
574.10	50.127
574.29	50.140
574.49	50.131
574.68	50.101
574.88	50.103
575.07	50.113
575.27	50.116
575.46	50.102
575.66	50.115
575.85	50.117
576.05	50.117
576.24	50.078
576.44	50.097
576.63	50.077
576.83	50.107
577.02	50.116
577.22	50.081
577.41	50.077
577.61	50.092
577.80	50.074
578.00	50.076
578.19	50.083
578.39	50.088
578.58	50.039
578.78	50.029
578.97	50.015
579.17	49.981
579.36	49.991
579.56	50.007
579.75	50.014
579.95	50.019
580.14	50.017
580.34	50.008
580.53	50.038
580.73	50.049
580.92	50.097
581.12	50.075
581.31	50.053
581.51	50.070
581.70	50.065
581.89	50.059
582.09	50.060
582.28	50.043
582.48	50.058
582.67	50.081
582.87	50.121
583.06	50.085
583.26	50.093
583.45	50.133
583.65	50.135
583.84	50.159
584.04	50.147
584.23	50.162
584.43	50.152
584.62	50.122
584.81	50.103
585.01	50.089
585.20	50.108
585.40	50.123
585.59	50.127
585.79	50.164
585.98	50.169
586.18	50.197
586.37	50.187
586.56	50.241
586.76	50.283
586.95	50.278
587.15	50.287
587.34	50.279
587.54	50.304
587.73	50.316
587.92	50.309
588.12	50.301
588.31	50.315
588.51	50.343
588.70	50.345
588.90	50.340
589.09	50.370
589.28	50.379
589.48	50.388
589.67	50.374
589.87	50.368
590.06	50.358
590.25	50.352
590.45	50.371
590.64	50.353
590.84	50.345
591.03	50.381
591.23	50.381
591.42	50.389
591.61	50.420
591.81	50.414
592.00	50.433
592.20	50.459
592.39	50.454
592.58	50.453
592.78	50.436
592.97	50.429
593.17	50.383
593.36	50.380
593.55	50.371
593.75	50.350
593.94	50.383
594.13	50.386
594.33	50.383
594.52	50.392
594.72	50.391
594.91	50.457
595.10	50.503
595.30	50.580
595.49	50.659
595.68	50.741
595.88	50.797
596.07	50.827
596.27	50.827
596.46	50.813
596.65	50.798
596.85	50.761
597.04	50.727
597.23	50.719
597.43	50.659
597.62	50.615
597.81	50.577
598.01	50.550
598.20	50.519
598.40	50.511
598.59	50.530
598.78	50.546
598.98	50.608
599.17	50.636
599.36	50.629
599.56	50.688
599.75	50.679
599.94	50.677
600.14	50.681
600.33	50.688
600.52	50.676
600.72	50.677
600.91	50.702
601.10	50.690
601.30	50.695
601.49	50.723
601.68	50.710
601.88	50.742
602.07	50.745
602.26	50.753
602.46	50.794
602.65	50.835
602.84	50.868
603.04	50.917
603.23	50.951
603.42	50.988
603.62	51.003
603.81	50.995
604.00	50.970
604.20	50.957
604.39	50.949
604.58	50.912
604.77	50.904
604.97	50.892
605.16	50.863
605.35	50.850
605.55	50.841
605.74	50.826
605.93	50.838
606.13	50.858
606.32	50.859
606.51	50.874
606.70	50.897
606.90	50.931
607.09	50.926
607.28	50.959
607.48	50.973
607.67	50.964
607.86	51.017
608.05	51.072
608.25	51.083
608.44	51.095
608.63	51.095
608.83	51.093
609.02	51.049
609.21	51.025
609.40	51.010
609.60	51.002
609.79	50.992
609.98	50.951
610.17	50.893
610.37	50.880
610.56	50.893
610.75	50.881
610.95	50.869
611.14	50.869
611.33	50.907
611.52	50.886
611.72	50.891
611.91	50.889
612.10	50.872
612.29	50.879
612.49	50.871
612.68	50.873
612.87	50.872
613.06	50.841
613.26	50.872
613.45	50.843
613.64	50.849
613.83	50.802
614.03	50.790
614.22	50.770
614.41	50.797
614.60	50.775
614.79	50.761
614.99	50.783
615.18	50.792
615.37	50.799
615.56	50.795
615.76	50.797
615.95	50.811
616.14	50.784
616.33	50.849
616.53	50.799
616.72	50.819
616.91	50.807
617.10	50.790
617.29	50.818
617.49	50.809
617.68	50.826
617.87	50.810
618.06	50.811
618.25	50.851
618.45	50.795
618.64	50.821
618.83	50.834
619.02	50.827
619.21	50.856
619.41	50.838
619.60	50.831
619.79	50.826
619.98	50.840
620.17	50.841
620.37	50.818
620.56	50.868
620.75	50.860
620.94	50.853
621.13	50.820
621.33	50.795
621.52	50.801
621.71	50.815
621.90	50.848
622.09	50.824
622.28	50.818
622.48	50.851
622.67	50.846
622.86	50.867
623.05	50.893
623.24	50.939
623.44	50.927
623.63	50.947
623.82	50.958
624.01	50.966
624.20	51.005
624.39	51.029
624.59	51.012
624.78	51.007
624.97	51.036
625.16	51.076
625.35	51.122
625.54	51.165
625.73	51.209
625.93	51.253
626.12	51.252
626.31	51.250
626.50	51.257
626.69	51.269
626.88	51.273
627.07	51.292
627.27	51.264
627.46	51.242
627.65	51.250
627.84	51.207
628.03	51.185
628.22	51.190
628.41	51.220
628.61	51.249
628.80	51.265
628.99	51.253
629.18	51.195
629.37	51.199
629.56	51.197
629.75	51.203
629.94	51.214
630.14	51.197
630.33	51.197
630.52	51.202
630.71	51.165
630.90	51.186
631.09	51.215
631.28	51.222
631.47	51.203
631.66	51.190
631.86	51.159
632.05	51.162
632.24	51.150
632.43	51.150
632.62	51.128
632.81	51.169
633.00	51.163
633.19	51.122
633.38	51.167
633.57	51.169
633.77	51.189
633.96	51.217
634.15	51.214
634.34	51.239
634.53	51.242
634.72	51.216
634.91	51.202
635.10	51.189
635.29	51.223
635.48	51.226
635.67	51.228
635.86	51.252
636.05	51.251
636.25	51.262
636.44	51.277
636.63	51.269
636.82	51.296
637.01	51.303
637.20	51.304
637.39	51.344
637.58	51.334
637.77	51.358
637.96	51.356
638.15	51.379
638.34	51.430
638.53	51.418
638.72	51.414
638.91	51.416
639.10	51.412
639.30	51.442
639.49	51.405
639.68	51.408
639.87	51.379
640.06	51.364
640.25	51.385
640.44	51.344
640.63	51.346
640.82	51.342
641.01	51.366
641.20	51.366
641.39	51.344
641.58	51.378
641.77	51.386
641.96	51.416
642.15	51.411
642.34	51.370
642.53	51.369
642.72	51.370
642.91	51.415
643.10	51.424
643.29	51.466
643.48	51.467
643.67	51.429
643.86	51.453
644.05	51.470
644.24	51.504
644.43	51.522
644.62	51.527
644.81	51.519
645.00	51.496
645.19	51.495
645.38	51.487
645.57	51.463
645.76	51.449
645.95	51.454
646.14	51.487
646.33	51.499
646.52	51.474
646.71	51.488
646.90	51.502
647.09	51.537
647.28	51.514
647.47	51.510
647.66	51.522
647.85	51.562
648.04	51.569
648.23	51.502
648.42	51.464
648.61	51.500
648.80	51.458
648.99	51.470
649.18	51.469
649.37	51.496
649.56	51.474
649.75	51.485
649.94	51.499
650.13	51.487
650.32	51.518
650.51	51.521
650.70	51.477
650.89	51.502
651.08	51.502
651.27	51.520
651.46	51.540
651.65	51.559
651.83	51.572
652.02	51.551
652.21	51.516
652.40	51.506
652.59	51.549
652.78	51.578
652.97	51.613
653.16	51.614
653.35	51.571
653.54	51.528
653.73	51.521
653.92	51.537
654.11	51.521
654.30	51.587
654.49	51.626
654.68	51.587
654.86	51.587
655.05	51.608
655.24	51.606
655.43	51.584
655.62	51.636
655.81	51.605
656.00	51.583
656.19	51.626
656.38	51.630
656.57	51.655
656.76	51.694
656.95	51.733
657.13	51.739
657.32	51.785
657.51	51.846
657.70	51.896
657.89	51.972
658.08	52.028
658.27	52.067
658.46	52.021
658.65	52.016
658.84	52.010
659.02	51.982
659.21	51.971
659.40	51.973
659.59	51.989
659.78	51.945
659.97	51.941
660.16	51.906
660.35	51.896
660.54	51.908
660.72	51.906
660.91	51.921
661.10	51.916
661.29	51.915
661.48	51.892
661.67	51.861
661.86	51.862
662.05	51.831
662.23	51.828
662.42	51.776
662.61	51.785
662.80	51.733
662.99	51.727
663.18	51.763
663.37	51.759
663.56	51.754
663.74	51.765
663.93	51.772
664.12	51.810
664.31	51.815
664.50	51.868
664.69	51.857
664.87	51.894
665.06	51.902
665.25	51.873
665.44	51.853
665.63	51.828
665.82	51.804
666.01	51.785
666.19	51.739
666.38	51.742
666.57	51.724
666.76	51.739
666.95	51.707
667.14	51.697
667.32	51.705
667.51	51.727
667.70	51.794
667.89	51.786
668.08	51.759
668.26	51.768
668.45	51.749
668.64	51.744
668.83	51.780
669.02	51.807
669.21	51.841
669.39	51.889
669.58	51.900
669.77	51.885
669.96	51.946
670.15	51.980
670.33	51.967
670.52	51.981
670.71	51.974
670.90	51.930
671.09	51.921
671.27	51.896
671.46	51.849
671.65	51.811
671.84	51.774
672.03	51.756
672.21	51.767
672.40	51.776
672.59	51.766
672.78	51.791
672.96	51.789
673.15	51.811
673.34	51.779
673.53	51.797
673.72	51.796
673.90	51.821
674.09	51.766
674.28	51.781
674.47	51.800
674.65	51.851
674.84	51.838
675.03	51.855
675.22	51.862
675.41	51.913
675.59	51.914
675.78	51.966
675.97	51.968
676.16	52.023
676.34	52.003
676.53	52.018
676.72	52.016
676.91	52.018
677.09	51.988
677.28	52.001
677.47	52.009
677.66	52.033
677.84	52.030
678.03	52.063
678.22	52.078
678.41	52.116
678.59	52.157
678.78	52.177
678.97	52.205
679.15	52.249
679.34	52.250
679.53	52.248
679.72	52.279
679.90	52.292
680.09	52.295
680.28	52.274
680.47	52.265
680.65	52.269
680.84	52.245
681.03	52.238
681.21	52.263
681.40	52.226
681.59	52.199
681.78	52.160
681.96	52.107
682.15	52.093
682.34	52.113
682.52	52.086
682.71	52.000
682.90	51.958
683.08	51.948
683.27	51.945
683.46	51.960
683.65	51.951
683.83	51.942
684.02	51.971
684.21	51.951
684.39	51.918
684.58	51.946
684.77	51.978
684.95	51.985
685.14	51.978
685.33	51.948
685.51	51.970
685.70	51.940
685.89	51.937
686.07	51.939
686.26	51.938
686.45	51.946
686.63	51.902
686.82	51.913
687.01	51.970
687.20	51.972
687.38	51.924
687.57	51.908
687.75	51.938
687.94	51.997
688.13	52.002
688.31	52.007
688.50	52.024
688.69	52.079
688.87	52.116
689.06	52.109
689.25	52.136
689.43	52.189
689.62	52.228
689.81	52.270
689.99	52.249
690.18	52.213
690.37	52.202
690.55	52.204
690.74	52.202
690.93	52.198
691.11	52.214
691.30	52.240
691.48	52.256
691.67	52.219
691.86	52.215
692.04	52.210
692.23	52.294
692.42	52.355
692.60	52.358
692.79	52.367
692.97	52.371
693.16	52.352
693.35	52.333
693.53	52.353
693.72	52.350
693.90	52.430
694.09	52.461
694.28	52.474
694.46	52.486
694.65	52.468
694.83	52.464
695.02	52.472
695.21	52.523
695.39	52.548
695.58	52.578
695.76	52.677
695.95	52.609
696.14	52.598
696.32	52.577
696.51	52.554
696.69	52.617
696.88	52.692
697.07	52.777
697.25	52.841
697.44	52.907
697.62	52.889
697.81	52.849
697.99	52.884
698.18	52.862
698.37	52.841
698.55	52.869
698.74	52.881
698.92	52.837
699.11	52.763
699.29	52.721
699.48	52.677
699.67	52.720
699.85	52.719
700.04	52.709
700.22	52.733
700.41	52.795
700.59	52.777
700.78	52.758
700.96	52.750
701.15	52.804
701.34	52.779
701.52	52.782
701.71	52.718
701.89	52.716
702.08	52.739
702.26	52.730
702.45	52.661
702.63	52.693
702.82	52.686
703.00	52.729
703.19	52.676
703.38	52.721
703.56	52.722
703.75	52.696
703.93	52.722
704.12	52.680
704.30	52.666
704.49	52.709
704.67	52.691
704.86	52.745
705.04	52.721
705.23	52.743
705.41	52.699
705.60	52.697
705.78	52.725
705.97	52.717
706.15	52.723
706.34	52.744
706.52	52.742
706.71	52.737
706.89	52.655
707.08	52.636
707.26	52.615
707.45	52.589
707.63	52.554
707.82	52.532
708.00	52.542
708.19	52.537
708.37	52.537
708.56	52.496
708.74	52.491
708.93	52.530
709.11	52.527
709.30	52.530
709.48	52.581
709.67	52.613
709.85	52.618
710.04	52.567
710.22	52.582
710.41	52.603
710.59	52.608
710.77	52.573
710.96	52.535
711.14	52.516
711.33	52.529
711.51	52.497
711.70	52.467
711.88	52.475
712.07	52.494
712.25	52.490
712.44	52.428
712.62	52.431
712.80	52.454
712.99	52.466
713.17	52.463
713.36	52.426
713.54	52.447
713.73	52.444
713.91	52.482
714.10	52.482
714.28	52.461
714.46	52.553
714.65	52.612
714.83	52.670
715.02	52.755
715.20	52.806
715.39	52.861
715.57	52.844
715.75	52.862
715.94	52.841
716.12	52.901
716.31	52.924
716.49	52.911
716.68	52.857
716.86	52.853
717.04	52.855
717.23	52.944
717.41	53.007
717.60	53.085
717.78	53.173
717.96	53.178
718.15	53.156
718.33	53.127
718.52	53.089
718.70	53.170
718.88	53.158
719.07	53.137
719.25	53.107
719.44	53.059
719.62	52.948
719.80	52.842
719.99	52.829
720.17	52.825
720.36	52.886
720.54	52.942
720.72	52.916
720.91	52.864
721.09	52.858
721.27	52.814
721.46	52.804
721.64	52.851
721.83	52.904
722.01	52.905
722.19	52.876
722.38	52.853
722.56	52.797
722.74	52.804
722.93	52.882
723.11	52.862
723.30	52.843
723.48	52.892
723.66	52.905
723.85	52.913
724.03	52.975
724.21	53.014
724.40	53.041
724.58	53.017
724.76	52.970
724.95	52.895
725.13	52.938
725.31	52.957
725.50	52.926
725.68	52.995
725.86	53.033
726.05	52.991
726.23	52.982
726.41	53.031
726.60	53.060
726.78	53.067
726.96	53.110
727.15	53.064
727.33	53.030
727.51	53.035
727.70	52.982
727.88	52.977
728.06	52.970
728.25	52.890
728.43	52.866
728.61	52.939
728.80	52.967
728.98	52.983
729.16	52.969
729.34	53.000
729.53	53.009
729.71	53.025
729.89	53.001
730.08	52.988
730.26	53.059
730.44	53.006
730.63	52.999
730.81	52.981
730.99	52.966
731.17	52.994
731.36	52.967
731.54	52.936
731.72	52.961
731.91	52.940
732.09	52.975
732.27	52.974
732.45	53.021
732.64	52.962
732.82	52.951
733.00	52.998
733.19	53.007
733.37	53.021
733.55	53.015
733.73	53.020
733.92	53.041
734.10	53.050
734.28	53.080
734.46	53.071
734.65	53.129
734.83	53.162
735.01	53.117
735.19	53.112
735.38	53.113
735.56	53.163
735.74	53.207
735.92	53.244
736.11	53.272
736.29	53.246
736.47	53.269
736.65	53.205
736.84	53.204
737.02	53.226
737.20	53.263
737.38	53.320
737.57	53.314
737.75	53.198
737.93	53.164
738.11	53.094
738.30	53.115
738.48	53.040
738.66	53.064
738.84	53.030
739.02	52.981
739.21	52.907
739.39	52.892
739.57	52.937
739.75	52.948
739.93	52.937
740.12	52.960
740.30	52.911
740.48	52.926
740.66	52.937
740.85	52.975
741.03	53.024
741.21	53.081
741.39	53.046
741.57	52.988
741.76	53.040
741.94	53.049
742.12	53.091
742.30	53.150
742.48	53.186
742.66	53.195
742.85	53.259
743.03	53.297
743.21	53.296
743.39	53.322
743.57	53.315
743.76	53.330
743.94	53.353
744.12	53.293
744.30	53.330
744.48	53.324
744.66	53.344
744.85	53.323
745.03	53.272
745.21	53.252
745.39	53.283
745.57	53.308
745.75	53.241
745.94	53.227
746.12	53.325
746.30	53.318
746.48	53.337
746.66	53.306
746.84	53.249
747.02	53.221
747.21	53.269
747.39	53.309
747.57	53.213
747.75	53.255
747.93	53.288
748.11	53.287
748.29	53.252
748.48	53.230
748.66	53.324
748.84	53.324
749.02	53.440
749.20	53.426
749.38	53.388
749.56	53.384
749.75	53.348
749.93	53.280
750.11	53.278
750.29	53.266
750.47	53.331
750.65	53.174
750.83	53.188
751.01	53.084
751.19	53.011
751.38	52.940
751.56	53.020
751.74	53.063
751.92	53.178
752.10	53.138
752.28	53.166
752.46	53.171
752.64	53.196
752.82	53.235
753.00	53.219
753.19	53.284
753.37	53.315
753.55	53.330
753.73	53.288
753.91	53.246
754.09	53.231
754.27	53.224
754.45	53.240
754.63	53.334
754.81	53.332
754.99	53.411
755.17	53.204
755.36	53.201
755.54	53.148
755.72	53.266
755.90	53.278
756.08	53.248
756.26	53.295
756.44	53.241
756.62	53.214
756.80	53.234
756.98	53.185
757.16	53.376
757.34	53.443
757.52	53.600
757.70	53.495
757.88	53.423
758.06	53.483
758.24	53.440
758.42	53.404
758.61	53.429
758.79	53.424
758.97	53.427
759.15	53.432
759.33	53.401
759.51	53.298
759.69	53.349
759.87	53.398
760.05	53.420
760.23	53.387
760.41	53.429
760.59	53.435
760.77	53.398
760.95	53.469
761.13	53.507
761.31	53.541
761.49	53.549
761.67	53.524
761.85	53.561
762.03	53.486
762.21	53.533
762.39	53.511
762.57	53.519
762.75	53.483
762.93	53.318
763.11	53.238
763.29	53.089
763.47	53.001
763.65	52.890
763.83	52.781
764.01	52.768
764.19	52.715
764.37	52.721
764.55	52.658
764.73	52.666
764.91	52.717
765.09	52.735
765.27	52.801
765.45	52.856
765.63	52.971
765.81	53.091
765.99	53.157
766.17	53.189
766.35	53.232
766.53	53.248
766.71	53.275
766.89	53.321
767.07	53.358
767.25	53.428
767.43	53.456
767.61	53.481
767.78	53.472
767.96	53.492
768.14	53.575
768.32	53.589
768.50	53.651
768.68	53.735
768.86	53.750
769.04	53.747
769.22	53.687
769.40	53.800
769.58	53.775
769.76	53.789
769.94	53.780
770.12	53.834
770.30	53.767
770.48	53.750
770.66	53.650
770.84	53.584
771.01	53.578
771.19	53.602
771.37	53.600
771.55	53.687
771.73	53.695
771.91	53.717
772.09	53.627
772.27	53.636
772.45	53.661
772.63	53.720
772.81	53.797
772.99	53.791
773.16	53.827
773.34	53.771
773.52	53.805
773.70	53.730
773.88	53.821
774.06	53.891
774.24	53.929
774.42	54.018
774.60	53.976
774.78	53.987
774.95	54.126
775.13	54.161
775.31	54.117
775.49	54.038
775.67	54.130
775.85	54.013
776.03	53.983
776.21	54.015
776.38	53.923
776.56	53.976
776.74	53.953
776.92	53.856
777.10	53.865
777.28	53.992
777.46	54.172
777.64	54.250
777.81	54.294
777.99	54.356
778.17	54.361
778.35	54.413
778.53	54.424
778.71	54.444
778.89	54.581
779.06	54.650
779.24	54.627
779.42	54.498
779.60	54.491
779.78	54.408
779.96	54.420
780.13	54.430
780.31	54.456
780.49	54.502
780.67	54.542
780.85	54.438
781.03	54.353
781.20	54.334
781.38	54.373
781.56	54.328
781.74	54.420
781.92	54.376
782.10	54.302
782.27	54.289
782.45	54.185
782.63	54.113
782.81	54.141
782.99	54.228
783.17	54.255
783.34	54.182
783.52	54.218
783.70	54.194
783.88	54.213
784.06	54.294
784.23	54.290
784.41	54.372
784.59	54.351
784.77	54.333
784.95	54.305
785.12	54.165
785.30	54.270
785.48	54.222
785.66	54.112
785.83	54.149
786.01	54.120
786.19	54.069
786.37	53.959
786.55	54.056
786.72	54.049
786.90	54.029
787.08	54.190
787.26	54.083
787.43	54.216
787.61	54.290
787.79	54.136
787.97	54.095
788.15	54.072
788.32	54.125
788.50	54.094
788.68	54.087
788.86	54.064
789.03	54.133
789.21	54.165
789.39	54.055
789.57	54.017
789.74	54.039
789.92	54.169
790.10	54.268
790.28	54.225
790.45	54.249
790.63	54.275
790.81	54.286
790.99	54.161
791.16	54.173
791.34	54.221
791.52	54.301
791.69	54.422
791.87	54.303
792.05	54.235
792.23	54.360
792.40	54.350
792.58	54.341
792.76	54.300
792.94	54.256
793.11	54.314
793.29	54.280
793.47	54.223
793.64	54.225
793.82	54.336
794.00	54.304
794.18	54.221
794.35	54.259
794.53	54.188
794.71	54.242
794.88	54.371
795.06	54.392
795.24	54.446
795.41	54.650
795.59	54.700
795.77	54.633
795.94	54.626
796.12	54.697
796.30	54.591
796.48	54.586
796.65	54.574
796.83	54.522
797.01	54.435
797.18	54.402
797.36	54.314
797.54	54.187
797.71	54.128
797.89	54.200
798.07	54.125
798.24	54.235
798.42	54.325
798.60	54.348
798.77	54.381
798.95	54.430
799.13	54.395
799.30	54.434
799.48	54.562
799.66	54.650
799.83	54.755
800.01	54.822
800.18	54.818
800.36	54.781
800.54	54.731
800.71	54.658
800.89	54.581
801.07	54.515
801.24	54.583
801.42	54.541
801.60	54.518
801.77	54.410
801.95	54.376
802.12	54.298
802.30	54.360
802.48	54.412
802.65	54.465
802.83	54.464
803.01	54.751
803.18	54.569
803.36	54.612
803.53	54.656
803.71	54.703
803.89	54.752
804.06	54.868
804.24	54.951
804.41	54.961
804.59	54.949
804.77	55.228
804.94	55.092
805.12	55.219
805.29	55.171
805.47	55.144
805.65	55.128
805.82	55.132
806.00	55.078
806.17	55.019
806.35	54.985
806.53	54.974
806.70	54.806
806.88	54.756
807.05	54.771
807.23	54.693
807.40	54.709
807.58	54.690
807.76	54.727
807.93	54.704
808.11	54.665
808.28	54.755
808.46	54.722
808.63	54.629
808.81	54.628
808.99	54.612
809.16	54.649
809.34	54.645
809.51	54.540
809.69	54.465
809.86	54.441
810.04	54.361
810.21	54.184
810.39	54.223
810.57	54.302
810.74	54.357
810.92	54.143
811.09	54.128
811.27	54.055
811.44	54.170
811.62	54.265
811.79	54.383
811.97	54.435
812.14	54.455
812.32	54.524
812.49	54.417
812.67	54.437
812.84	54.622
813.02	54.824
813.19	55.026
813.37	54.943
813.55	54.907
813.72	54.903
813.90	55.066
814.07	55.218
814.25	55.132
814.42	55.306
814.60	55.285
814.77	55.209
814.95	55.077
815.12	54.981
815.30	55.233
815.47	55.185
815.65	55.104
815.82	55.052
816.00	55.123
816.17	55.130
816.35	54.977
816.52	54.994
816.69	55.098
816.87	55.059
817.04	55.100
817.22	54.908
817.39	54.932
817.57	54.982
817.74	54.936
817.92	54.850
818.09	54.793
818.27	54.912
818.44	54.928
818.62	54.956
818.79	54.987
818.97	54.952
819.14	55.079
819.32	54.960
819.49	54.890
819.66	54.875
819.84	54.789
820.01	54.824
820.19	54.789
820.36	54.620
820.54	54.608
820.71	54.566
820.89	54.626
821.06	54.701
821.23	54.789
821.41	54.699
821.58	54.526
821.76	54.294
821.93	54.075
822.11	53.773
822.28	53.553
822.45	53.292
822.63	53.131
822.80	53.040
822.98	52.916
823.15	52.816
823.33	52.744
823.50	52.664
823.67	52.612
823.85	52.597
824.02	52.669
824.20	52.778
824.37	52.995
824.54	53.219
824.72	53.355
824.89	53.537
825.07	53.684
825.24	53.806
825.41	53.961
825.59	54.142
825.76	54.290
825.94	54.466
826.11	54.640
826.28	54.687
826.46	54.659
826.63	54.593
826.80	54.502
826.98	54.422
827.15	54.367
827.33	54.273
827.50	54.147
827.67	54.033
827.85	53.903
828.02	53.812
828.19	53.769
828.37	53.757
828.54	53.794
828.72	53.914
828.89	53.973
829.06	54.093
829.24	54.322
829.41	54.500
829.58	54.685
829.76	54.917
829.93	55.037
830.10	55.237
830.28	55.308
830.45	55.481
830.62	55.447
830.80	55.584
830.97	55.570
831.14	55.534
831.32	55.626
831.49	55.490
831.66	55.392
831.84	55.420
832.01	55.314
832.18	55.375
832.36	55.315
832.53	55.403
832.70	55.475
832.88	55.509
833.05	55.399
833.22	55.208
833.40	55.157
833.57	55.004
833.74	54.780
833.91	54.670
834.09	54.562
834.26	54.418
834.43	54.309
834.61	54.212
834.78	54.088
834.95	54.029
835.13	54.068
835.30	54.113
835.47	54.126
835.64	54.310
835.82	54.382
835.99	54.498
836.16	54.650
836.34	54.781
836.51	54.909
836.68	54.997
836.85	55.001
837.03	55.126
837.20	55.263
837.37	55.409
837.54	55.435
837.72	55.512
837.89	55.466
838.06	55.548
838.24	55.446
838.41	55.467
838.58	55.390
838.75	55.532
838.93	55.649
839.10	55.495
839.27	55.614
839.44	55.534
839.62	55.782
839.79	55.839
839.96	55.791
840.13	55.704
840.31	55.418
840.48	55.467
840.65	55.367
840.82	55.310
840.99	55.374
841.17	55.216
841.34	55.265
841.51	55.032
841.68	55.035
841.86	55.084
842.03	55.212
842.20	55.361
842.37	55.564
842.55	55.609
842.72	55.548
842.89	55.345
843.06	55.532
843.23	55.303
843.41	55.251
843.58	55.258
843.75	55.185
843.92	55.133
844.09	55.268
844.27	55.234
844.44	55.565
844.61	55.358
844.78	55.881
844.95	55.604
845.13	55.894
845.30	56.144
845.47	56.252
845.64	56.494
845.81	56.834
845.98	56.901
846.16	56.476
846.33	56.265
846.50	56.646
846.67	56.264
846.84	56.741
847.02	56.755
847.19	56.712
847.36	56.392
847.53	56.064
847.70	55.849
847.87	56.265
848.04	56.507
848.22	56.557
848.39	56.206
848.56	56.181
848.73	56.160
848.90	56.146
849.07	56.057
849.25	56.399
849.42	56.428
849.59	56.336
849.76	55.927
849.93	56.024
850.10	56.122
850.27	56.390
850.45	56.680
850.62	56.762
850.79	56.542
850.96	56.433
851.13	56.179
851.30	56.145
851.47	56.181
851.64	56.079
851.82	55.992
851.99	55.723
852.16	55.879
852.33	55.588
852.50	55.296
852.67	55.595
852.84	55.616
853.01	55.548
853.18	55.440
853.35	55.135
853.53	55.182
853.70	55.398
853.87	55.533
854.04	55.498
854.21	55.490
854.38	55.221
854.55	55.126
854.72	55.105
854.89	55.352
855.06	55.600
855.23	55.887
855.41	56.012
855.58	55.833
855.75	56.113
855.92	55.927
856.09	55.906
856.26	56.241
856.43	56.037
856.60	55.810
856.77	55.895
856.94	55.815
857.11	56.000
857.28	55.946
857.45	55.977
857.62	55.697
857.80	55.799
857.97	55.828
858.14	55.849
858.31	56.331
858.48	56.671
858.65	56.559
858.82	56.194
858.99	55.881
859.16	55.694
859.33	55.981
859.50	55.730
859.67	55.706
859.84	55.588
860.01	55.448
860.18	54.888
860.35	54.833
860.52	55.378
860.69	55.575
860.86	55.740
861.03	55.200
861.20	55.308
861.37	55.714
861.54	55.559
861.71	55.597
861.88	55.628
862.05	55.958
862.22	55.996
862.39	55.426
862.56	55.414
862.73	55.728
862.90	56.270
863.07	56.028
863.24	55.924
863.41	55.956
863.58	56.003
863.75	56.032
863.92	55.858
864.09	56.222
864.26	56.308
864.43	56.388
864.60	56.341
864.77	56.384
864.94	56.381
865.11	56.282
865.28	56.361
865.45	56.256
865.62	56.109
865.79	56.375
865.96	55.915
866.13	55.983
866.30	56.125
866.47	55.761
866.64	55.708
866.81	55.648
866.98	55.771
867.15	55.661
867.32	55.679
867.49	56.008
867.66	56.047
867.82	56.375
867.99	56.389
868.16	56.621
868.33	56.832
868.50	56.751
868.67	57.007
868.84	57.082
869.01	57.415
869.18	57.817
869.35	58.012
869.52	57.910
869.69	58.076
869.86	58.254
870.03	58.044
870.19	57.860
870.36	57.973
870.53	57.854
870.70	57.782
870.87	57.875
871.04	57.565
871.21	57.271
871.38	57.060
871.55	57.247
871.72	56.722
871.89	56.406
872.05	56.605
872.22	56.685
872.39	56.455
872.56	56.594
872.73	56.299
872.90	56.674
873.07	56.926
873.24	57.165
873.41	56.951
873.57	56.903
873.74	57.037
873.91	56.581
874.08	56.687
874.25	56.671
874.42	56.493
874.59	56.520
874.76	56.270
874.92	55.977
875.09	55.959
875.26	55.642
875.43	55.964
875.60	55.985
875.77	56.415
875.94	56.089
876.11	56.256
876.27	56.599
876.44	56.318
876.61	56.146
876.78	56.289
876.95	56.224
877.12	56.305
877.28	56.304
877.45	56.396
877.62	56.292
877.79	56.447
877.96	56.609
878.13	56.208
878.29	56.418
878.46	56.452
878.63	56.528
878.80	56.620
878.97	56.726
879.14	56.736
879.30	56.706
879.47	56.800
879.64	56.897
879.81	56.885
879.98	57.049
880.14	57.177
880.31	57.305
880.48	57.183
880.65	57.180
880.82	56.937
880.98	56.500
881.15	56.073
881.32	55.579
881.49	55.203
881.66	54.938
881.82	54.681
881.99	54.394
882.16	54.223
882.33	54.075
882.50	53.905
882.66	53.814
882.83	53.794
883.00	53.818
883.17	53.903
883.33	53.986
883.50	54.113
883.67	54.252
883.84	54.473
884.01	54.641
884.17	54.792
884.34	54.909
884.51	55.054
884.68	55.212
884.84	55.323
885.01	55.457
885.18	55.537
885.35	55.562
885.51	55.636
885.68	55.746
885.85	55.837
886.02	56.053
886.18	56.282
886.35	56.253
886.52	56.274
886.69	56.271
886.85	56.287
887.02	56.436
887.19	56.420
887.35	56.632
887.52	56.642
887.69	56.618
887.86	56.623
888.02	56.763
888.19	56.813
888.36	57.403
888.53	57.143
888.69	58.869
888.86	58.085
889.03	54.675
>>>>>End Spectral Data<<<<<
