OOIBase32 Version 2.0.6.5 Data File
++++++++++++++++++++++++++++++++++++
Date: 11-17-2016, 11:09:23
User: Valued Ocean Optics Customer
Spectrometer Serial Number: USB4C01507
Spectrometer Channel: Master
Integration Time (msec): 49
Spectra Averaged: 25
Boxcar Smoothing: 5
Correct for Electrical Dark: Enabled
Time Normalized: Disabled
Dual-beam Reference: Disabled
Reference Channel: Master
Temperature: Not acquired
Spectrometer Type: S4000
ADC Type: USB4000
Number of Pixels in File: 3648
Graph Title: 
>>>>>Begin Spectral Data<<<<<
178.53	1668.170
178.74	2294.349
178.96	58.671
179.18	37.553
179.39	490.162
179.61	41.852
179.82	67.757
180.04	15.804
180.25	137.809
180.47	59.485
180.69	-26.464
180.90	169.136
181.12	418.815
181.33	240.037
181.55	27.254
181.76	-5369.473
181.98	135.848
182.20	281.915
182.41	32.566
182.63	-152.908
182.84	37.225
183.06	29.239
183.27	30.469
183.49	26.636
183.71	27.715
183.92	18.287
184.14	1.854
184.35	-1.717
184.57	-22.009
184.78	-19.504
185.00	-15.124
185.21	-17.223
185.43	-9.854
185.65	-0.735
185.86	-5.952
186.08	-1.216
186.29	7.944
186.51	12.996
186.72	14.846
186.94	26.344
187.15	30.839
187.37	20.874
187.58	22.475
187.80	20.683
188.02	18.349
188.23	17.434
188.45	12.683
188.66	17.518
188.88	18.586
189.09	18.542
189.31	20.564
189.52	14.098
189.74	21.444
189.95	25.690
190.17	28.925
190.38	31.027
190.60	31.297
190.82	41.290
191.03	30.572
191.25	28.854
191.46	30.561
191.68	27.269
191.89	28.757
192.11	22.495
192.32	22.335
192.54	13.917
192.75	12.473
192.97	13.737
193.18	8.895
193.40	20.260
193.61	22.714
193.83	24.333
194.04	22.050
194.26	29.710
194.48	31.906
194.69	30.409
194.91	28.864
195.12	32.698
195.34	33.714
195.55	35.216
195.77	26.797
195.98	24.304
196.20	19.661
196.41	16.972
196.63	9.370
196.84	12.341
197.06	11.591
197.27	16.622
197.49	17.077
197.70	10.208
197.92	6.585
198.13	12.331
198.35	6.196
198.56	8.119
198.78	9.444
198.99	14.163
199.21	12.047
199.42	10.588
199.64	10.891
199.85	7.532
200.07	13.244
200.28	17.411
200.50	17.497
200.71	21.183
200.93	17.856
201.14	15.118
201.36	15.767
201.57	14.124
201.79	13.540
202.00	15.112
202.22	16.416
202.43	16.755
202.65	9.484
202.86	8.474
203.08	9.508
203.29	10.734
203.51	10.891
203.72	8.201
203.94	8.790
204.15	12.280
204.37	14.663
204.58	13.202
204.80	12.621
205.01	21.235
205.22	16.434
205.44	19.489
205.65	14.743
205.87	14.591
206.08	16.464
206.30	19.430
206.51	16.493
206.73	13.784
206.94	11.952
207.16	9.988
207.37	6.679
207.59	9.942
207.80	6.635
208.02	12.989
208.23	14.097
208.45	12.821
208.66	8.975
208.88	12.383
209.09	10.528
209.30	15.782
209.52	15.254
209.73	14.115
209.95	17.326
210.16	11.778
210.38	13.323
210.59	9.792
210.81	7.043
211.02	8.298
211.24	7.204
211.45	3.085
211.66	1.695
211.88	4.213
212.09	4.879
212.31	3.356
212.52	7.743
212.74	3.107
212.95	4.205
213.17	6.780
213.38	9.485
213.60	11.008
213.81	15.737
214.02	15.305
214.24	14.402
214.45	10.980
214.67	10.306
214.88	9.323
215.10	10.884
215.31	12.003
215.53	9.038
215.74	7.177
215.95	6.537
216.17	4.824
216.38	2.514
216.60	-0.185
216.81	2.333
217.03	1.267
217.24	1.160
217.45	0.661
217.67	1.386
217.88	3.698
218.10	3.377
218.31	3.199
218.53	3.760
218.74	3.353
218.95	2.464
219.17	-1.162
219.38	1.282
219.60	2.842
219.81	3.711
220.03	3.282
220.24	3.692
220.45	3.963
220.67	4.561
220.88	5.198
221.10	6.657
221.31	7.761
221.53	9.457
221.74	7.387
221.95	6.560
222.17	5.149
222.38	5.535
222.60	5.018
222.81	3.853
223.02	3.088
223.24	3.415
223.45	3.230
223.67	2.796
223.88	2.108
224.09	3.939
224.31	4.308
224.52	5.711
224.74	4.051
224.95	4.174
225.16	4.635
225.38	4.319
225.59	3.773
225.81	3.434
226.02	3.483
226.23	3.226
226.45	2.956
226.66	2.410
226.88	2.437
227.09	3.088
227.30	2.845
227.52	2.986
227.73	2.665
227.95	2.575
228.16	2.601
228.37	2.504
228.59	2.527
228.80	2.449
229.02	2.448
229.23	2.370
229.44	2.302
229.66	2.296
229.87	2.207
230.08	2.282
230.30	2.205
230.51	2.244
230.73	2.365
230.94	2.504
231.15	2.421
231.37	2.596
231.58	2.557
231.80	2.580
232.01	2.694
232.22	2.743
232.44	2.832
232.65	2.951
232.86	2.593
233.08	2.695
233.29	2.598
233.51	2.783
233.72	2.632
233.93	2.572
234.15	2.646
234.36	2.298
234.57	2.174
234.79	2.484
235.00	2.748
235.21	3.140
235.43	3.099
235.64	2.878
235.86	2.752
236.07	2.582
236.28	2.505
236.50	2.238
236.71	2.669
236.92	2.712
237.14	2.475
237.35	2.210
237.56	2.157
237.78	1.987
237.99	2.066
238.20	2.134
238.42	2.423
238.63	2.568
238.84	3.003
239.06	2.684
239.27	2.466
239.48	2.378
239.70	2.393
239.91	2.039
240.13	2.088
240.34	2.209
240.55	2.159
240.77	2.136
240.98	2.172
241.19	2.088
241.41	2.097
241.62	2.190
241.83	2.178
242.05	2.158
242.26	2.229
242.47	2.150
242.69	2.113
242.90	2.175
243.11	2.153
243.33	2.114
243.54	2.057
243.75	2.175
243.97	2.092
244.18	2.083
244.39	2.131
244.61	1.984
244.82	2.082
245.03	1.969
245.24	1.761
245.46	1.870
245.67	1.943
245.88	2.012
246.10	1.935
246.31	1.936
246.52	1.885
246.74	1.860
246.95	1.931
247.16	1.940
247.38	1.943
247.59	1.991
247.80	1.995
248.02	2.014
248.23	1.958
248.44	1.967
248.66	1.970
248.87	2.044
249.08	2.075
249.29	2.106
249.51	2.180
249.72	2.244
249.93	2.246
250.15	2.171
250.36	1.991
250.57	2.110
250.79	2.148
251.00	2.204
251.21	2.112
251.42	2.056
251.64	1.919
251.85	1.871
252.06	2.016
252.28	1.971
252.49	2.002
252.70	2.029
252.91	2.015
253.13	2.144
253.34	2.095
253.55	2.213
253.77	2.293
253.98	2.515
254.19	2.494
254.40	2.401
254.62	2.505
254.83	2.415
255.04	2.477
255.26	2.506
255.47	2.071
255.68	2.177
255.89	2.243
256.11	2.117
256.32	1.750
256.53	1.771
256.75	1.800
256.96	1.789
257.17	1.910
257.38	2.022
257.60	2.140
257.81	2.221
258.02	2.243
258.23	2.073
258.45	2.139
258.66	2.182
258.87	2.057
259.09	1.921
259.30	1.864
259.51	1.794
259.72	1.782
259.94	1.707
260.15	1.671
260.36	1.677
260.57	1.697
260.79	1.676
261.00	1.629
261.21	1.675
261.42	1.730
261.64	1.788
261.85	1.794
262.06	1.674
262.27	1.843
262.49	1.895
262.70	1.830
262.91	1.815
263.12	1.763
263.34	1.901
263.55	1.742
263.76	1.758
263.97	1.792
264.19	1.942
264.40	1.969
264.61	1.842
264.82	1.866
265.04	1.944
265.25	1.931
265.46	1.953
265.67	1.955
265.88	1.959
266.10	1.901
266.31	1.776
266.52	1.702
266.73	1.858
266.95	1.802
267.16	1.792
267.37	1.736
267.58	1.704
267.80	1.800
268.01	1.728
268.22	1.772
268.43	1.836
268.64	1.921
268.86	1.909
269.07	1.768
269.28	1.746
269.49	1.729
269.71	1.688
269.92	1.590
270.13	1.494
270.34	1.521
270.55	1.565
270.77	1.634
270.98	1.542
271.19	1.593
271.40	1.650
271.61	1.654
271.83	1.702
272.04	1.755
272.25	1.883
272.46	1.918
272.68	1.947
272.89	1.940
273.10	1.876
273.31	1.875
273.52	1.871
273.74	1.779
273.95	1.754
274.16	1.763
274.37	1.777
274.58	1.811
274.80	1.793
275.01	1.756
275.22	1.792
275.43	1.857
275.64	1.926
275.86	1.928
276.07	1.916
276.28	2.061
276.49	2.021
276.70	1.954
276.91	1.844
277.13	1.757
277.34	1.804
277.55	1.827
277.76	1.692
277.97	1.634
278.19	1.596
278.40	1.674
278.61	1.584
278.82	1.548
279.03	1.628
279.24	1.600
279.46	1.625
279.67	1.590
279.88	1.377
280.09	1.437
280.30	1.433
280.52	1.433
280.73	1.542
280.94	1.550
281.15	1.560
281.36	1.521
281.57	1.626
281.79	1.655
282.00	1.639
282.21	1.724
282.42	1.713
282.63	1.761
282.84	1.743
283.06	1.712
283.27	1.801
283.48	1.755
283.69	1.704
283.90	1.707
284.11	1.702
284.32	1.706
284.54	1.672
284.75	1.690
284.96	1.621
285.17	1.678
285.38	1.651
285.59	1.577
285.81	1.676
286.02	1.734
286.23	1.660
286.44	1.678
286.65	1.706
286.86	1.710
287.07	1.706
287.29	1.793
287.50	1.813
287.71	1.767
287.92	1.883
288.13	1.843
288.34	1.792
288.55	1.839
288.77	1.813
288.98	1.755
289.19	1.805
289.40	1.842
289.61	1.853
289.82	1.836
290.03	1.822
290.24	1.798
290.46	1.779
290.67	1.824
290.88	1.839
291.09	1.861
291.30	1.926
291.51	2.018
291.72	1.993
291.93	2.026
292.15	2.034
292.36	2.207
292.57	2.150
292.78	2.071
292.99	2.030
293.20	2.099
293.41	2.008
293.62	1.979
293.84	1.943
294.05	1.897
294.26	1.800
294.47	1.706
294.68	1.675
294.89	1.786
295.10	1.933
295.31	1.930
295.52	1.944
295.73	1.931
295.95	1.942
296.16	1.938
296.37	2.006
296.58	2.056
296.79	2.088
297.00	2.067
297.21	2.021
297.42	1.941
297.63	1.969
297.84	1.892
298.06	1.914
298.27	1.930
298.48	1.971
298.69	1.820
298.90	1.856
299.11	1.923
299.32	1.931
299.53	1.851
299.74	1.914
299.95	1.918
300.16	1.929
300.38	1.986
300.59	1.899
300.80	1.822
301.01	1.883
301.22	1.800
301.43	1.744
301.64	1.751
301.85	1.755
302.06	1.756
302.27	1.682
302.48	1.732
302.69	1.670
302.91	1.684
303.12	1.752
303.33	1.773
303.54	1.798
303.75	1.704
303.96	1.759
304.17	1.756
304.38	1.782
304.59	1.876
304.80	1.801
305.01	1.865
305.22	1.880
305.43	1.804
305.64	1.855
305.85	1.788
306.06	1.919
306.28	1.841
306.49	1.911
306.70	1.859
306.91	1.752
307.12	1.839
307.33	1.708
307.54	1.779
307.75	1.811
307.96	1.815
308.17	1.844
308.38	1.778
308.59	1.762
308.80	1.719
309.01	1.735
309.22	1.786
309.43	1.777
309.64	1.833
309.85	1.804
310.06	1.771
310.27	1.770
310.48	1.804
310.70	1.845
310.91	1.893
311.12	1.898
311.33	1.877
311.54	1.799
311.75	1.771
311.96	1.823
312.17	1.799
312.38	1.801
312.59	1.814
312.80	1.810
313.01	1.785
313.22	1.745
313.43	1.740
313.64	1.743
313.85	1.793
314.06	1.849
314.27	1.839
314.48	1.934
314.69	1.968
314.90	1.904
315.11	1.944
315.32	1.997
315.53	1.955
315.74	1.931
315.95	1.966
316.16	2.004
316.37	1.943
316.58	1.887
316.79	1.777
317.00	1.841
317.21	1.845
317.42	1.761
317.63	1.755
317.84	1.764
318.05	1.733
318.26	1.697
318.47	1.689
318.68	1.734
318.89	1.797
319.10	1.790
319.31	1.690
319.52	1.759
319.73	1.769
319.94	1.784
320.15	1.786
320.36	1.928
320.57	1.906
320.78	1.899
320.99	1.884
321.20	1.832
321.41	1.900
321.62	1.948
321.83	1.972
322.04	1.961
322.25	1.932
322.46	1.958
322.67	1.924
322.88	1.944
323.09	2.016
323.30	1.961
323.51	1.914
323.72	1.905
323.93	1.851
324.14	1.864
324.35	1.915
324.56	1.868
324.77	1.825
324.98	1.776
325.19	1.803
325.40	1.803
325.61	1.835
325.82	1.941
326.03	1.951
326.24	1.994
326.45	1.995
326.65	1.940
326.86	1.995
327.07	2.064
327.28	2.086
327.49	2.052
327.70	1.997
327.91	2.047
328.12	2.009
328.33	1.919
328.54	1.997
328.75	1.971
328.96	2.025
329.17	1.951
329.38	1.913
329.59	1.936
329.80	2.003
330.01	2.065
330.22	2.077
330.43	2.156
330.64	2.231
330.85	2.166
331.05	2.134
331.26	2.148
331.47	2.163
331.68	2.143
331.89	2.156
332.10	2.116
332.31	2.071
332.52	2.032
332.73	1.976
332.94	2.027
333.15	2.066
333.36	2.089
333.57	2.074
333.78	2.052
333.99	2.082
334.19	2.062
334.40	2.084
334.61	2.174
334.82	2.262
335.03	2.243
335.24	2.256
335.45	2.196
335.66	2.198
335.87	2.254
336.08	2.342
336.29	2.404
336.50	2.379
336.71	2.451
336.91	2.407
337.12	2.294
337.33	2.323
337.54	2.342
337.75	2.351
337.96	2.299
338.17	2.273
338.38	2.260
338.59	2.253
338.80	2.280
339.01	2.223
339.21	2.207
339.42	2.283
339.63	2.251
339.84	2.232
340.05	2.241
340.26	2.232
340.47	2.279
340.68	2.311
340.89	2.305
341.10	2.319
341.30	2.370
341.51	2.364
341.72	2.402
341.93	2.470
342.14	2.393
342.35	2.436
342.56	2.490
342.77	2.482
342.98	2.438
343.18	2.424
343.39	2.417
343.60	2.361
343.81	2.402
344.02	2.385
344.23	2.371
344.44	2.379
344.65	2.362
344.85	2.352
345.06	2.377
345.27	2.405
345.48	2.412
345.69	2.469
345.90	2.500
346.11	2.467
346.32	2.440
346.52	2.414
346.73	2.458
346.94	2.475
347.15	2.522
347.36	2.434
347.57	2.440
347.78	2.441
347.98	2.419
348.19	2.407
348.40	2.423
348.61	2.456
348.82	2.536
349.03	2.558
349.24	2.558
349.44	2.554
349.65	2.605
349.86	2.636
350.07	2.663
350.28	2.663
350.49	2.657
350.70	2.669
350.90	2.672
351.11	2.597
351.32	2.594
351.53	2.613
351.74	2.594
351.95	2.558
352.15	2.552
352.36	2.528
352.57	2.516
352.78	2.596
352.99	2.606
353.20	2.639
353.40	2.659
353.61	2.614
353.82	2.602
354.03	2.688
354.24	2.718
354.45	2.777
354.65	2.782
354.86	2.790
355.07	2.767
355.28	2.809
355.49	2.796
355.70	2.841
355.90	2.888
356.11	2.897
356.32	2.854
356.53	2.882
356.74	2.809
356.94	2.818
357.15	2.867
357.36	2.852
357.57	2.789
357.78	2.754
357.99	2.721
358.19	2.738
358.40	2.773
358.61	2.807
358.82	2.869
359.03	2.908
359.23	2.917
359.44	2.916
359.65	2.916
359.86	2.970
360.07	3.005
360.27	3.045
360.48	3.053
360.69	3.064
360.90	3.017
361.11	3.086
361.31	3.081
361.52	3.086
361.73	3.061
361.94	3.082
362.15	3.038
362.35	3.035
362.56	3.042
362.77	3.061
362.98	3.031
363.18	3.036
363.39	2.907
363.60	2.900
363.81	2.916
364.02	2.970
364.22	2.997
364.43	3.052
364.64	3.036
364.85	3.028
365.05	3.034
365.26	3.057
365.47	3.110
365.68	3.131
365.89	3.177
366.09	3.217
366.30	3.195
366.51	3.205
366.72	3.175
366.92	3.250
367.13	3.291
367.34	3.323
367.55	3.330
367.75	3.326
367.96	3.339
368.17	3.328
368.38	3.294
368.58	3.299
368.79	3.255
369.00	3.289
369.21	3.236
369.41	3.191
369.62	3.133
369.83	3.128
370.04	3.127
370.24	3.148
370.45	3.164
370.66	3.186
370.87	3.165
371.07	3.165
371.28	3.198
371.49	3.225
371.70	3.261
371.90	3.301
372.11	3.305
372.32	3.314
372.53	3.315
372.73	3.291
372.94	3.250
373.15	3.304
373.36	3.328
373.56	3.312
373.77	3.282
373.98	3.287
374.19	3.279
374.39	3.324
374.60	3.343
374.81	3.354
375.01	3.368
375.22	3.395
375.43	3.377
375.64	3.378
375.84	3.377
376.05	3.425
376.26	3.420
376.46	3.400
376.67	3.365
376.88	3.367
377.09	3.357
377.29	3.360
377.50	3.363
377.71	3.356
377.91	3.392
378.12	3.405
378.33	3.399
378.54	3.429
378.74	3.477
378.95	3.497
379.16	3.525
379.36	3.509
379.57	3.521
379.78	3.529
379.99	3.535
380.19	3.493
380.40	3.467
380.61	3.478
380.81	3.436
381.02	3.430
381.23	3.395
381.43	3.359
381.64	3.418
381.85	3.432
382.05	3.451
382.26	3.457
382.47	3.466
382.67	3.502
382.88	3.493
383.09	3.521
383.30	3.522
383.50	3.595
383.71	3.596
383.92	3.552
384.12	3.570
384.33	3.528
384.54	3.532
384.74	3.556
384.95	3.533
385.16	3.558
385.36	3.579
385.57	3.581
385.78	3.560
385.98	3.589
386.19	3.600
386.40	3.604
386.60	3.624
386.81	3.652
387.02	3.670
387.22	3.694
387.43	3.698
387.64	3.685
387.84	3.691
388.05	3.693
388.26	3.698
388.46	3.719
388.67	3.731
388.88	3.771
389.08	3.765
389.29	3.782
389.49	3.785
389.70	3.781
389.91	3.785
390.11	3.785
390.32	3.787
390.53	3.801
390.73	3.823
390.94	3.813
391.15	3.809
391.35	3.818
391.56	3.815
391.77	3.828
391.97	3.850
392.18	3.866
392.38	3.885
392.59	3.912
392.80	3.915
393.00	3.897
393.21	3.886
393.42	3.925
393.62	3.946
393.83	3.946
394.04	3.947
394.24	3.934
394.45	3.956
394.65	3.974
394.86	3.958
395.07	3.955
395.27	3.967
395.48	3.989
395.68	3.974
395.89	3.955
396.10	3.963
396.30	3.959
396.51	3.983
396.72	3.985
396.92	3.967
397.13	3.981
397.33	3.989
397.54	4.010
397.75	4.019
397.95	4.023
398.16	4.003
398.36	4.003
398.57	4.036
398.78	4.030
398.98	4.031
399.19	4.048
399.39	4.073
399.60	4.100
399.81	4.104
400.01	4.095
400.22	4.104
400.42	4.176
400.63	4.170
400.84	4.198
401.04	4.224
401.25	4.218
401.45	4.237
401.66	4.234
401.86	4.197
402.07	4.222
402.28	4.256
402.48	4.273
402.69	4.272
402.89	4.299
403.10	4.292
403.31	4.307
403.51	4.312
403.72	4.309
403.92	4.323
404.13	4.333
404.33	4.329
404.54	4.328
404.75	4.331
404.95	4.348
405.16	4.351
405.36	4.358
405.57	4.356
405.77	4.401
405.98	4.397
406.18	4.389
406.39	4.423
406.60	4.412
406.80	4.418
407.01	4.418
407.21	4.395
407.42	4.425
407.62	4.437
407.83	4.416
408.03	4.390
408.24	4.405
408.45	4.401
408.65	4.411
408.86	4.457
409.06	4.473
409.27	4.487
409.47	4.500
409.68	4.487
409.88	4.519
410.09	4.554
410.29	4.562
410.50	4.595
410.71	4.638
410.91	4.663
411.12	4.661
411.32	4.674
411.53	4.701
411.73	4.749
411.94	4.766
412.14	4.768
412.35	4.787
412.55	4.811
412.76	4.805
412.96	4.810
413.17	4.799
413.37	4.797
413.58	4.815
413.78	4.820
413.99	4.824
414.19	4.889
414.40	4.910
414.61	4.895
414.81	4.904
415.02	4.919
415.22	4.931
415.43	4.946
415.63	4.974
415.84	4.989
416.04	5.007
416.25	4.999
416.45	4.971
416.66	4.964
416.86	5.001
417.07	5.014
417.27	5.016
417.48	5.021
417.68	5.034
417.89	5.029
418.09	5.048
418.30	5.034
418.50	5.024
418.71	5.041
418.91	5.052
419.12	5.045
419.32	5.047
419.53	5.060
419.73	5.064
419.94	5.075
420.14	5.071
420.34	5.066
420.55	5.083
420.75	5.109
420.96	5.106
421.16	5.106
421.37	5.121
421.57	5.140
421.78	5.137
421.98	5.154
422.19	5.177
422.39	5.223
422.60	5.236
422.80	5.258
423.01	5.281
423.21	5.314
423.42	5.334
423.62	5.336
423.83	5.331
424.03	5.362
424.23	5.385
424.44	5.374
424.64	5.376
424.85	5.384
425.05	5.396
425.26	5.407
425.46	5.427
425.67	5.451
425.87	5.487
426.08	5.515
426.28	5.522
426.48	5.526
426.69	5.560
426.89	5.598
427.10	5.645
427.30	5.687
427.51	5.707
427.71	5.691
427.92	5.688
428.12	5.699
428.32	5.710
428.53	5.730
428.73	5.762
428.94	5.771
429.14	5.772
429.35	5.762
429.55	5.776
429.76	5.788
429.96	5.831
430.16	5.858
430.37	5.870
430.57	5.884
430.78	5.912
430.98	5.921
431.19	5.944
431.39	5.945
431.59	5.951
431.80	5.938
432.00	5.937
432.21	5.938
432.41	5.926
432.61	5.939
432.82	5.954
433.02	5.971
433.23	5.971
433.43	5.981
433.64	6.000
433.84	6.026
434.04	6.054
434.25	6.080
434.45	6.089
434.66	6.127
434.86	6.147
435.06	6.168
435.27	6.176
435.47	6.205
435.68	6.203
435.88	6.228
436.08	6.232
436.29	6.234
436.49	6.252
436.70	6.274
436.90	6.287
437.10	6.300
437.31	6.304
437.51	6.308
437.71	6.323
437.92	6.354
438.12	6.349
438.33	6.367
438.53	6.361
438.73	6.357
438.94	6.365
439.14	6.372
439.35	6.379
439.55	6.410
439.75	6.442
439.96	6.461
440.16	6.478
440.36	6.494
440.57	6.510
440.77	6.540
440.97	6.571
441.18	6.583
441.38	6.598
441.59	6.624
441.79	6.635
441.99	6.638
442.20	6.635
442.40	6.630
442.60	6.667
442.81	6.692
443.01	6.718
443.21	6.739
443.42	6.760
443.62	6.797
443.83	6.813
444.03	6.827
444.23	6.849
444.44	6.881
444.64	6.917
444.84	6.913
445.05	6.909
445.25	6.907
445.45	6.919
445.66	6.926
445.86	6.922
446.06	6.930
446.27	6.939
446.47	6.943
446.67	6.962
446.88	6.968
447.08	6.983
447.28	7.003
447.49	7.039
447.69	7.051
447.89	7.076
448.10	7.112
448.30	7.136
448.50	7.149
448.71	7.179
448.91	7.192
449.11	7.221
449.32	7.257
449.52	7.291
449.72	7.287
449.93	7.307
450.13	7.334
450.33	7.363
450.53	7.372
450.74	7.416
450.94	7.420
451.14	7.436
451.35	7.446
451.55	7.467
451.75	7.484
451.96	7.494
452.16	7.506
452.36	7.516
452.57	7.520
452.77	7.551
452.97	7.558
453.17	7.580
453.38	7.598
453.58	7.601
453.78	7.590
453.99	7.595
454.19	7.629
454.39	7.650
454.59	7.678
454.80	7.703
455.00	7.708
455.20	7.728
455.41	7.752
455.61	7.769
455.81	7.809
456.01	7.848
456.22	7.888
456.42	7.929
456.62	7.963
456.83	7.969
457.03	7.975
457.23	7.975
457.43	7.992
457.64	8.012
457.84	8.006
458.04	8.016
458.25	8.032
458.45	8.046
458.65	8.039
458.85	8.040
459.06	8.043
459.26	8.054
459.46	8.072
459.66	8.086
459.87	8.100
460.07	8.130
460.27	8.147
460.47	8.167
460.68	8.192
460.88	8.215
461.08	8.242
461.28	8.288
461.49	8.310
461.69	8.354
461.89	8.381
462.09	8.404
462.30	8.417
462.50	8.445
462.70	8.475
462.90	8.478
463.11	8.515
463.31	8.545
463.51	8.544
463.71	8.588
463.92	8.626
464.12	8.630
464.32	8.663
464.52	8.696
464.72	8.717
464.93	8.711
465.13	8.731
465.33	8.730
465.53	8.746
465.74	8.780
465.94	8.782
466.14	8.782
466.34	8.806
466.54	8.795
466.75	8.791
466.95	8.811
467.15	8.836
467.35	8.851
467.56	8.889
467.76	8.907
467.96	8.922
468.16	8.947
468.36	8.947
468.57	8.983
468.77	9.025
468.97	9.052
469.17	9.070
469.37	9.080
469.58	9.096
469.78	9.111
469.98	9.138
470.18	9.154
470.38	9.182
470.59	9.220
470.79	9.229
470.99	9.243
471.19	9.259
471.39	9.282
471.60	9.303
471.80	9.322
472.00	9.330
472.20	9.348
472.40	9.376
472.61	9.376
472.81	9.392
473.01	9.409
473.21	9.428
473.41	9.446
473.61	9.458
473.82	9.502
474.02	9.511
474.22	9.540
474.42	9.551
474.62	9.576
474.82	9.616
475.03	9.677
475.23	9.704
475.43	9.736
475.63	9.786
475.83	9.792
476.03	9.790
476.24	9.822
476.44	9.842
476.64	9.856
476.84	9.865
477.04	9.869
477.24	9.858
477.45	9.872
477.65	9.888
477.85	9.880
478.05	9.894
478.25	9.915
478.45	9.936
478.65	9.962
478.86	9.982
479.06	9.993
479.26	10.034
479.46	10.060
479.66	10.098
479.86	10.125
480.06	10.163
480.27	10.194
480.47	10.209
480.67	10.219
480.87	10.220
481.07	10.237
481.27	10.272
481.47	10.299
481.68	10.316
481.88	10.345
482.08	10.385
482.28	10.442
482.48	10.488
482.68	10.540
482.88	10.621
483.08	10.767
483.29	10.840
483.49	10.796
483.69	10.741
483.89	10.718
484.09	10.707
484.29	10.694
484.49	10.687
484.69	10.689
484.89	10.687
485.10	10.661
485.30	10.559
485.50	10.481
485.70	10.531
485.90	10.612
486.10	10.682
486.30	10.734
486.50	10.779
486.70	10.800
486.90	10.816
487.11	10.827
487.31	10.828
487.51	10.831
487.71	10.834
487.91	10.835
488.11	10.838
488.31	10.846
488.51	10.849
488.71	10.865
488.91	10.893
489.11	10.920
489.32	10.953
489.52	11.001
489.72	11.044
489.92	11.103
490.12	11.170
490.32	11.226
490.52	11.254
490.72	11.270
490.92	11.276
491.12	11.260
491.32	11.252
491.52	11.248
491.72	11.250
491.92	11.255
492.13	11.261
492.33	11.258
492.53	11.273
492.73	11.296
492.93	11.325
493.13	11.363
493.33	11.413
493.53	11.467
493.73	11.518
493.93	11.548
494.13	11.581
494.33	11.594
494.53	11.637
494.73	11.656
494.93	11.672
495.13	11.691
495.33	11.717
495.53	11.741
495.73	11.758
495.94	11.788
496.14	11.810
496.34	11.835
496.54	11.864
496.74	11.882
496.94	11.903
497.14	11.909
497.34	11.934
497.54	11.946
497.74	11.965
497.94	12.003
498.14	12.019
498.34	12.046
498.54	12.060
498.74	12.080
498.94	12.110
499.14	12.124
499.34	12.159
499.54	12.172
499.74	12.189
499.94	12.210
500.14	12.222
500.34	12.255
500.54	12.289
500.74	12.328
500.94	12.366
501.14	12.373
501.34	12.405
501.54	12.422
501.74	12.447
501.94	12.463
502.14	12.497
502.34	12.534
502.54	12.542
502.74	12.560
502.94	12.567
503.14	12.568
503.34	12.593
503.54	12.611
503.74	12.637
503.94	12.662
504.14	12.686
504.34	12.697
504.54	12.714
504.74	12.746
504.94	12.764
505.14	12.804
505.34	12.842
505.54	12.863
505.74	12.892
505.94	12.914
506.14	12.937
506.34	12.976
506.54	13.010
506.74	13.020
506.94	13.027
507.14	13.044
507.34	13.046
507.54	13.052
507.74	13.053
507.94	13.060
508.14	13.082
508.34	13.092
508.54	13.106
508.74	13.118
508.94	13.130
509.13	13.157
509.33	13.185
509.53	13.207
509.73	13.227
509.93	13.277
510.13	13.310
510.33	13.333
510.53	13.363
510.73	13.387
510.93	13.421
511.13	13.449
511.33	13.486
511.53	13.509
511.73	13.533
511.93	13.558
512.13	13.554
512.33	13.574
512.53	13.581
512.73	13.600
512.92	13.630
513.12	13.642
513.32	13.677
513.52	13.688
513.72	13.714
513.92	13.738
514.12	13.761
514.32	13.791
514.52	13.821
514.72	13.847
514.92	13.874
515.12	13.893
515.32	13.917
515.52	13.931
515.71	13.957
515.91	13.977
516.11	14.016
516.31	14.044
516.51	14.067
516.71	14.087
516.91	14.131
517.11	14.148
517.31	14.163
517.51	14.177
517.71	14.188
517.90	14.200
518.10	14.204
518.30	14.197
518.50	14.210
518.70	14.224
518.90	14.219
519.10	14.221
519.30	14.238
519.50	14.262
519.69	14.279
519.89	14.314
520.09	14.340
520.29	14.372
520.49	14.409
520.69	14.448
520.89	14.463
521.09	14.503
521.29	14.525
521.48	14.558
521.68	14.570
521.88	14.596
522.08	14.621
522.28	14.667
522.48	14.687
522.68	14.726
522.88	14.732
523.07	14.791
523.27	14.830
523.47	14.876
523.67	14.900
523.87	14.943
524.07	14.980
524.27	14.994
524.47	14.994
524.66	15.006
524.86	15.013
525.06	15.032
525.26	15.038
525.46	15.042
525.66	15.055
525.85	15.054
526.05	15.048
526.25	15.061
526.45	15.092
526.65	15.154
526.85	15.214
527.05	15.289
527.24	15.375
527.44	15.431
527.64	15.494
527.84	15.530
528.04	15.552
528.24	15.542
528.43	15.530
528.63	15.525
528.83	15.509
529.03	15.498
529.23	15.489
529.43	15.471
529.62	15.465
529.82	15.449
530.02	15.444
530.22	15.456
530.42	15.500
530.62	15.545
530.81	15.590
531.01	15.632
531.21	15.681
531.41	15.727
531.61	15.797
531.80	15.857
532.00	15.899
532.20	15.913
532.40	15.934
532.60	15.950
532.79	15.956
532.99	15.951
533.19	15.963
533.39	15.968
533.59	15.975
533.78	15.971
533.98	15.972
534.18	15.988
534.38	16.022
534.58	16.054
534.77	16.094
534.97	16.155
535.17	16.224
535.37	16.275
535.57	16.324
535.76	16.350
535.96	16.381
536.16	16.382
536.36	16.378
536.56	16.384
536.75	16.389
536.95	16.406
537.15	16.414
537.35	16.427
537.54	16.441
537.74	16.461
537.94	16.495
538.14	16.525
538.34	16.577
538.53	16.647
538.73	16.692
538.93	16.728
539.13	16.763
539.32	16.822
539.52	16.875
539.72	16.951
539.92	17.001
540.11	17.032
540.31	17.039
540.51	17.031
540.71	17.011
540.90	16.983
541.10	16.974
541.30	16.966
541.50	16.957
541.69	16.952
541.89	16.934
542.09	16.944
542.29	16.945
542.48	16.955
542.68	16.979
542.88	17.006
543.08	17.051
543.27	17.094
543.47	17.142
543.67	17.183
543.87	17.221
544.06	17.255
544.26	17.277
544.46	17.307
544.65	17.340
544.85	17.373
545.05	17.418
545.25	17.466
545.44	17.499
545.64	17.524
545.84	17.550
546.04	17.562
546.23	17.572
546.43	17.568
546.63	17.591
546.82	17.608
547.02	17.646
547.22	17.675
547.42	17.682
547.61	17.709
547.81	17.742
548.01	17.769
548.20	17.797
548.40	17.858
548.60	17.923
548.79	17.956
548.99	17.999
549.19	18.003
549.39	18.010
549.58	18.062
549.78	18.077
549.98	18.101
550.17	18.129
550.37	18.166
550.57	18.181
550.76	18.187
550.96	18.213
551.16	18.243
551.35	18.281
551.55	18.297
551.75	18.306
551.94	18.332
552.14	18.349
552.34	18.344
552.53	18.371
552.73	18.393
552.93	18.425
553.13	18.441
553.32	18.460
553.52	18.495
553.72	18.531
553.91	18.558
554.11	18.580
554.31	18.619
554.50	18.668
554.70	18.701
554.89	18.732
555.09	18.757
555.29	18.795
555.48	18.819
555.68	18.844
555.88	18.871
556.07	18.893
556.27	18.934
556.47	18.943
556.66	18.968
556.86	18.985
557.06	19.010
557.25	19.024
557.45	19.051
557.65	19.093
557.84	19.119
558.04	19.153
558.23	19.186
558.43	19.197
558.63	19.234
558.82	19.251
559.02	19.263
559.22	19.275
559.41	19.303
559.61	19.323
559.81	19.314
560.00	19.312
560.20	19.321
560.39	19.335
560.59	19.353
560.79	19.366
560.98	19.414
561.18	19.414
561.37	19.434
561.57	19.469
561.77	19.487
561.96	19.534
562.16	19.578
562.36	19.602
562.55	19.644
562.75	19.671
562.94	19.709
563.14	19.721
563.34	19.786
563.53	19.830
563.73	19.857
563.92	19.873
564.12	19.874
564.32	19.880
564.51	19.903
564.71	19.909
564.90	19.936
565.10	19.926
565.29	19.946
565.49	19.948
565.69	19.943
565.88	19.934
566.08	19.969
566.27	19.980
566.47	20.004
566.67	20.029
566.86	20.055
567.06	20.077
567.25	20.110
567.45	20.134
567.64	20.160
567.84	20.197
568.04	20.243
568.23	20.275
568.43	20.315
568.62	20.341
568.82	20.354
569.01	20.371
569.21	20.387
569.41	20.424
569.60	20.440
569.80	20.468
569.99	20.493
570.19	20.523
570.38	20.540
570.58	20.576
570.77	20.580
570.97	20.629
571.17	20.642
571.36	20.671
571.56	20.679
571.75	20.670
571.95	20.679
572.14	20.694
572.34	20.703
572.53	20.717
572.73	20.741
572.92	20.775
573.12	20.780
573.31	20.822
573.51	20.849
573.70	20.867
573.90	20.903
574.10	20.919
574.29	20.961
574.49	21.003
574.68	21.018
574.88	21.014
575.07	21.028
575.27	21.031
575.46	21.030
575.66	21.053
575.85	21.081
576.05	21.126
576.24	21.171
576.44	21.161
576.63	21.166
576.83	21.190
577.02	21.220
577.22	21.239
577.41	21.290
577.61	21.312
577.80	21.315
578.00	21.320
578.19	21.337
578.39	21.356
578.58	21.398
578.78	21.423
578.97	21.464
579.17	21.493
579.36	21.513
579.56	21.535
579.75	21.574
579.95	21.613
580.14	21.631
580.34	21.662
580.53	21.694
580.73	21.690
580.92	21.718
581.12	21.707
581.31	21.722
581.51	21.752
581.70	21.755
581.89	21.757
582.09	21.780
582.28	21.811
582.48	21.828
582.67	21.845
582.87	21.896
583.06	21.904
583.26	21.937
583.45	21.976
583.65	21.992
583.84	22.028
584.04	22.060
584.23	22.076
584.43	22.094
584.62	22.103
584.81	22.108
585.01	22.126
585.20	22.150
585.40	22.160
585.59	22.165
585.79	22.207
585.98	22.234
586.18	22.255
586.37	22.264
586.56	22.304
586.76	22.314
586.95	22.337
587.15	22.351
587.34	22.367
587.54	22.396
587.73	22.433
587.92	22.436
588.12	22.456
588.31	22.467
588.51	22.487
588.70	22.496
588.90	22.510
589.09	22.522
589.28	22.537
589.48	22.546
589.67	22.560
589.87	22.559
590.06	22.571
590.25	22.566
590.45	22.596
590.64	22.627
590.84	22.639
591.03	22.679
591.23	22.715
591.42	22.726
591.61	22.756
591.81	22.789
592.00	22.822
592.20	22.842
592.39	22.870
592.58	22.900
592.78	22.895
592.97	22.919
593.17	22.934
593.36	22.944
593.55	22.977
593.75	23.017
593.94	23.026
594.13	23.030
594.33	23.050
594.52	23.071
594.72	23.069
594.91	23.099
595.10	23.118
595.30	23.141
595.49	23.163
595.68	23.192
595.88	23.201
596.07	23.216
596.27	23.226
596.46	23.219
596.65	23.215
596.85	23.230
597.04	23.239
597.23	23.269
597.43	23.278
597.62	23.297
597.81	23.304
598.01	23.322
598.20	23.358
598.40	23.388
598.59	23.432
598.78	23.481
598.98	23.523
599.17	23.561
599.36	23.560
599.56	23.598
599.75	23.610
599.94	23.621
600.14	23.637
600.33	23.656
600.52	23.691
600.72	23.719
600.91	23.729
601.10	23.729
601.30	23.732
601.49	23.763
601.68	23.768
601.88	23.802
602.07	23.820
602.26	23.835
602.46	23.828
602.65	23.832
602.84	23.867
603.04	23.892
603.23	23.899
603.42	23.935
603.62	23.952
603.81	23.952
604.00	23.954
604.20	23.951
604.39	23.956
604.58	23.984
604.77	23.999
604.97	23.987
605.16	23.991
605.35	24.025
605.55	24.026
605.74	24.030
605.93	24.058
606.13	24.075
606.32	24.120
606.51	24.157
606.70	24.181
606.90	24.209
607.09	24.251
607.28	24.301
607.48	24.324
607.67	24.341
607.86	24.382
608.05	24.411
608.25	24.426
608.44	24.433
608.63	24.459
608.83	24.442
609.02	24.441
609.21	24.443
609.40	24.436
609.60	24.433
609.79	24.441
609.98	24.434
610.17	24.449
610.37	24.447
610.56	24.463
610.75	24.452
610.95	24.484
611.14	24.508
611.33	24.538
611.52	24.562
611.72	24.595
611.91	24.630
612.10	24.662
612.29	24.677
612.49	24.704
612.68	24.737
612.87	24.771
613.06	24.795
613.26	24.837
613.45	24.849
613.64	24.853
613.83	24.842
614.03	24.860
614.22	24.857
614.41	24.862
614.60	24.916
614.79	24.926
614.99	24.922
615.18	24.930
615.37	24.947
615.56	24.955
615.76	24.984
615.95	25.036
616.14	25.038
616.33	25.090
616.53	25.128
616.72	25.128
616.91	25.123
617.10	25.150
617.29	25.180
617.49	25.162
617.68	25.159
617.87	25.156
618.06	25.175
618.25	25.228
618.45	25.225
618.64	25.221
618.83	25.227
619.02	25.276
619.21	25.289
619.41	25.297
619.60	25.332
619.79	25.367
619.98	25.425
620.17	25.407
620.37	25.404
620.56	25.419
620.75	25.422
620.94	25.440
621.13	25.432
621.33	25.445
621.52	25.466
621.71	25.479
621.90	25.521
622.09	25.496
622.28	25.521
622.48	25.517
622.67	25.553
622.86	25.582
623.05	25.615
623.24	25.638
623.44	25.669
623.63	25.660
623.82	25.675
624.01	25.663
624.20	25.691
624.39	25.707
624.59	25.758
624.78	25.780
624.97	25.827
625.16	25.829
625.35	25.860
625.54	25.872
625.73	25.898
625.93	25.907
626.12	25.944
626.31	25.949
626.50	25.962
626.69	25.952
626.88	25.920
627.07	25.912
627.27	25.940
627.46	25.926
627.65	25.928
627.84	25.964
628.03	25.991
628.22	26.014
628.41	26.048
628.61	26.098
628.80	26.119
628.99	26.175
629.18	26.180
629.37	26.198
629.56	26.251
629.75	26.278
629.94	26.277
630.14	26.294
630.33	26.302
630.52	26.312
630.71	26.288
630.90	26.346
631.09	26.367
631.28	26.403
631.47	26.401
631.66	26.412
631.86	26.438
632.05	26.450
632.24	26.487
632.43	26.472
632.62	26.485
632.81	26.522
633.00	26.529
633.19	26.525
633.38	26.530
633.57	26.543
633.77	26.527
633.96	26.549
634.15	26.544
634.34	26.531
634.53	26.561
634.72	26.560
634.91	26.552
635.10	26.532
635.29	26.576
635.48	26.603
635.67	26.636
635.86	26.670
636.05	26.685
636.25	26.719
636.44	26.731
636.63	26.740
636.82	26.816
637.01	26.863
637.20	26.895
637.39	26.891
637.58	26.921
637.77	26.926
637.96	26.966
638.15	26.972
638.34	27.017
638.53	27.034
638.72	27.057
638.91	27.044
639.10	27.061
639.30	27.105
639.49	27.127
639.68	27.118
639.87	27.152
640.06	27.157
640.25	27.187
640.44	27.151
640.63	27.147
640.82	27.165
641.01	27.181
641.20	27.184
641.39	27.167
641.58	27.188
641.77	27.214
641.96	27.213
642.15	27.230
642.34	27.243
642.53	27.312
642.72	27.365
642.91	27.372
643.10	27.369
643.29	27.401
643.48	27.432
643.67	27.411
643.86	27.438
644.05	27.469
644.24	27.481
644.43	27.484
644.62	27.490
644.81	27.486
645.00	27.502
645.19	27.539
645.38	27.538
645.57	27.521
645.76	27.552
645.95	27.587
646.14	27.598
646.33	27.593
646.52	27.608
646.71	27.641
646.90	27.660
647.09	27.680
647.28	27.660
647.47	27.690
647.66	27.687
647.85	27.690
648.04	27.674
648.23	27.699
648.42	27.722
648.61	27.765
648.80	27.721
648.99	27.733
649.18	27.773
649.37	27.821
649.56	27.822
649.75	27.871
649.94	27.895
650.13	27.933
650.32	27.924
650.51	27.940
650.70	27.922
650.89	27.976
651.08	28.008
651.27	28.001
651.46	27.976
651.65	27.984
651.83	27.988
652.02	27.995
652.21	27.962
652.40	27.974
652.59	27.987
652.78	28.033
652.97	28.043
653.16	28.068
653.35	28.088
653.54	28.141
653.73	28.186
653.92	28.189
654.11	28.216
654.30	28.262
654.49	28.300
654.68	28.307
654.86	28.310
655.05	28.352
655.24	28.341
655.43	28.327
655.62	28.341
655.81	28.351
656.00	28.387
656.19	28.391
656.38	28.429
656.57	28.424
656.76	28.436
656.95	28.468
657.13	28.443
657.32	28.478
657.51	28.519
657.70	28.551
657.89	28.566
658.08	28.551
658.27	28.552
658.46	28.519
658.65	28.527
658.84	28.548
659.02	28.534
659.21	28.560
659.40	28.556
659.59	28.571
659.78	28.531
659.97	28.514
660.16	28.549
660.35	28.582
660.54	28.599
660.72	28.624
660.91	28.663
661.10	28.710
661.29	28.721
661.48	28.746
661.67	28.755
661.86	28.797
662.05	28.815
662.23	28.843
662.42	28.868
662.61	28.909
662.80	28.943
662.99	28.957
663.18	28.991
663.37	29.015
663.56	29.023
663.74	29.048
663.93	29.075
664.12	29.116
664.31	29.109
664.50	29.149
664.69	29.169
664.87	29.155
665.06	29.161
665.25	29.155
665.44	29.136
665.63	29.136
665.82	29.123
666.01	29.116
666.19	29.139
666.38	29.157
666.57	29.165
666.76	29.169
666.95	29.172
667.14	29.197
667.32	29.199
667.51	29.238
667.70	29.273
667.89	29.276
668.08	29.302
668.26	29.301
668.45	29.312
668.64	29.292
668.83	29.321
669.02	29.354
669.21	29.300
669.39	29.291
669.58	29.272
669.77	29.280
669.96	29.296
670.15	29.318
670.33	29.288
670.52	29.307
670.71	29.323
670.90	29.300
671.09	29.298
671.27	29.367
671.46	29.400
671.65	29.457
671.84	29.475
672.03	29.539
672.21	29.571
672.40	29.611
672.59	29.617
672.78	29.650
672.96	29.656
673.15	29.690
673.34	29.685
673.53	29.683
673.72	29.678
673.90	29.673
674.09	29.636
674.28	29.654
674.47	29.720
674.65	29.754
674.84	29.757
675.03	29.816
675.22	29.845
675.41	29.880
675.59	29.905
675.78	29.947
675.97	29.979
676.16	30.019
676.34	30.004
676.53	29.981
676.72	29.957
676.91	29.982
677.09	29.965
677.28	29.953
677.47	29.974
677.66	30.000
677.84	29.990
678.03	30.013
678.22	30.042
678.41	30.094
678.59	30.110
678.78	30.170
678.97	30.206
679.15	30.224
679.34	30.229
679.53	30.225
679.72	30.194
679.90	30.199
680.09	30.183
680.28	30.205
680.47	30.163
680.65	30.184
680.84	30.184
681.03	30.164
681.21	30.168
681.40	30.188
681.59	30.209
681.78	30.268
681.96	30.291
682.15	30.297
682.34	30.292
682.52	30.295
682.71	30.293
682.90	30.268
683.08	30.301
683.27	30.334
683.46	30.344
683.65	30.342
683.83	30.310
684.02	30.309
684.21	30.317
684.39	30.298
684.58	30.360
684.77	30.377
684.95	30.406
685.14	30.396
685.33	30.385
685.51	30.422
685.70	30.433
685.89	30.448
686.07	30.495
686.26	30.539
686.45	30.606
686.63	30.583
686.82	30.584
687.01	30.605
687.20	30.624
687.38	30.643
687.57	30.637
687.75	30.661
687.94	30.716
688.13	30.716
688.31	30.704
688.50	30.668
688.69	30.703
688.87	30.726
689.06	30.724
689.25	30.755
689.43	30.784
689.62	30.812
689.81	30.802
689.99	30.801
690.18	30.803
690.37	30.813
690.55	30.812
690.74	30.816
690.93	30.821
691.11	30.877
691.30	30.874
691.48	30.886
691.67	30.866
691.86	30.880
692.04	30.876
692.23	30.903
692.42	30.965
692.60	31.046
692.79	31.041
692.97	31.079
693.16	31.063
693.35	31.095
693.53	31.114
693.72	31.148
693.90	31.187
694.09	31.207
694.28	31.231
694.46	31.244
694.65	31.179
694.83	31.232
695.02	31.238
695.21	31.281
695.39	31.246
695.58	31.246
695.76	31.245
695.95	31.259
696.14	31.262
696.32	31.243
696.51	31.220
696.69	31.276
696.88	31.331
697.07	31.354
697.25	31.342
697.44	31.423
697.62	31.473
697.81	31.476
697.99	31.445
698.18	31.429
698.37	31.402
698.55	31.400
698.74	31.414
698.92	31.365
699.11	31.340
699.29	31.338
699.48	31.297
699.67	31.265
699.85	31.276
700.04	31.277
700.22	31.304
700.41	31.392
700.59	31.399
700.78	31.385
700.96	31.398
701.15	31.457
701.34	31.463
701.52	31.461
701.71	31.473
701.89	31.495
702.08	31.555
702.26	31.595
702.45	31.541
702.63	31.585
702.82	31.628
703.00	31.702
703.19	31.662
703.38	31.716
703.56	31.754
703.75	31.748
703.93	31.745
704.12	31.768
704.30	31.755
704.49	31.767
704.67	31.828
704.86	31.821
705.04	31.757
705.23	31.785
705.41	31.798
705.60	31.805
705.78	31.829
705.97	31.831
706.15	31.786
706.34	31.830
706.52	31.874
706.71	31.856
706.89	31.874
707.08	31.892
707.26	31.909
707.45	31.900
707.63	31.930
707.82	31.912
708.00	31.910
708.19	31.941
708.37	31.946
708.56	31.913
708.74	31.895
708.93	31.881
709.11	31.926
709.30	31.943
709.48	31.952
709.67	31.965
709.85	31.981
710.04	32.053
710.22	32.078
710.41	32.077
710.59	32.118
710.77	32.107
710.96	32.153
711.14	32.162
711.33	32.158
711.51	32.171
711.70	32.145
711.88	32.175
712.07	32.128
712.25	32.134
712.44	32.144
712.62	32.138
712.80	32.168
712.99	32.170
713.17	32.150
713.36	32.172
713.54	32.198
713.73	32.228
713.91	32.271
714.10	32.303
714.28	32.287
714.46	32.276
714.65	32.337
714.83	32.421
715.02	32.453
715.20	32.496
715.39	32.456
715.57	32.430
715.75	32.421
715.94	32.392
716.12	32.412
716.31	32.459
716.49	32.491
716.68	32.422
716.86	32.349
717.04	32.342
717.23	32.387
717.41	32.471
717.60	32.532
717.78	32.569
717.96	32.551
718.15	32.516
718.33	32.497
718.52	32.526
718.70	32.571
718.88	32.596
719.07	32.604
719.25	32.562
719.44	32.526
719.62	32.490
719.80	32.490
719.99	32.521
720.17	32.537
720.36	32.611
720.54	32.630
720.72	32.681
720.91	32.665
721.09	32.652
721.27	32.669
721.46	32.697
721.64	32.718
721.83	32.694
722.01	32.734
722.19	32.781
722.38	32.770
722.56	32.738
722.74	32.738
722.93	32.808
723.11	32.836
723.30	32.853
723.48	32.869
723.66	32.874
723.85	32.965
724.03	32.982
724.21	33.037
724.40	33.014
724.58	33.038
724.76	33.004
724.95	32.977
725.13	32.987
725.31	32.944
725.50	32.947
725.68	32.955
725.86	32.939
726.05	32.959
726.23	32.939
726.41	32.977
726.60	32.961
726.78	32.971
726.96	33.017
727.15	32.995
727.33	33.054
727.51	33.084
727.70	33.107
727.88	33.101
728.06	33.127
728.25	33.086
728.43	33.108
728.61	33.124
728.80	33.140
728.98	33.172
729.16	33.199
729.34	33.183
729.53	33.207
729.71	33.181
729.89	33.216
730.08	33.212
730.26	33.252
730.44	33.202
730.63	33.251
730.81	33.285
730.99	33.285
731.17	33.351
731.36	33.337
731.54	33.302
731.72	33.356
731.91	33.334
732.09	33.350
732.27	33.346
732.45	33.358
732.64	33.294
732.82	33.234
733.00	33.242
733.19	33.226
733.37	33.302
733.55	33.318
733.73	33.336
733.92	33.391
734.10	33.382
734.28	33.417
734.46	33.445
734.65	33.507
734.83	33.544
735.01	33.532
735.19	33.526
735.38	33.495
735.56	33.505
735.74	33.558
735.92	33.530
736.11	33.561
736.29	33.584
736.47	33.566
736.65	33.627
736.84	33.728
737.02	33.725
737.20	33.723
737.38	33.779
737.57	33.809
737.75	33.761
737.93	33.770
738.11	33.740
738.30	33.694
738.48	33.738
738.66	33.720
738.84	33.691
739.02	33.699
739.21	33.704
739.39	33.664
739.57	33.687
739.75	33.695
739.93	33.701
740.12	33.745
740.30	33.775
740.48	33.752
740.66	33.700
740.85	33.666
741.03	33.663
741.21	33.689
741.39	33.731
741.57	33.708
741.76	33.635
741.94	33.619
742.12	33.605
742.30	33.645
742.48	33.698
742.66	33.732
742.85	33.818
743.03	33.890
743.21	33.929
743.39	33.915
743.57	33.943
743.76	34.061
743.94	34.101
744.12	34.086
744.30	34.117
744.48	34.073
744.66	34.110
744.85	34.060
745.03	34.036
745.21	34.035
745.39	34.071
745.57	34.105
745.75	34.115
745.94	34.123
746.12	34.184
746.30	34.157
746.48	34.224
746.66	34.251
746.84	34.278
747.02	34.339
747.21	34.340
747.39	34.292
747.57	34.211
747.75	34.198
747.93	34.252
748.11	34.280
748.29	34.371
748.48	34.373
748.66	34.396
748.84	34.420
749.02	34.394
749.20	34.403
749.38	34.427
749.56	34.476
749.75	34.496
749.93	34.472
750.11	34.477
750.29	34.421
750.47	34.448
750.65	34.379
750.83	34.412
751.01	34.393
751.19	34.405
751.38	34.456
751.56	34.467
751.74	34.446
751.92	34.470
752.10	34.465
752.28	34.532
752.46	34.551
752.64	34.613
752.82	34.583
753.00	34.562
753.19	34.541
753.37	34.499
753.55	34.475
753.73	34.421
753.91	34.456
754.09	34.353
754.27	34.279
754.45	34.209
754.63	34.184
754.81	34.141
754.99	34.158
755.17	33.936
755.36	33.950
755.54	34.046
755.72	34.182
755.90	34.141
756.08	34.233
756.26	34.294
756.44	34.339
756.62	34.382
756.80	34.473
756.98	34.558
757.16	34.763
757.34	34.825
757.52	34.813
757.70	34.757
757.88	34.769
758.06	34.810
758.24	34.764
758.42	34.795
758.61	34.843
758.79	34.803
758.97	34.750
759.15	34.774
759.33	34.720
759.51	34.688
759.69	34.766
759.87	34.807
760.05	34.826
760.23	34.831
760.41	34.845
760.59	34.776
760.77	34.824
760.95	34.883
761.13	34.909
761.31	34.927
761.49	34.923
761.67	34.934
761.85	34.917
762.03	34.912
762.21	34.968
762.39	34.951
762.57	35.013
762.75	35.012
762.93	34.975
763.11	34.984
763.29	34.965
763.47	34.907
763.65	34.817
763.83	34.786
764.01	34.773
764.19	34.724
764.37	34.759
764.55	34.714
764.73	34.719
764.91	34.718
765.09	34.710
765.27	34.697
765.45	34.780
765.63	34.833
765.81	34.875
765.99	34.906
766.17	34.927
766.35	34.908
766.53	34.924
766.71	34.941
766.89	34.964
767.07	34.982
767.25	35.041
767.43	35.027
767.61	35.069
767.78	35.108
767.96	35.083
768.14	35.085
768.32	35.132
768.50	35.195
768.68	35.158
768.86	35.136
769.04	35.174
769.22	35.220
769.40	35.293
769.58	35.294
769.76	35.323
769.94	35.419
770.12	35.515
770.30	35.414
770.48	35.352
770.66	35.372
770.84	35.395
771.01	35.407
771.19	35.342
771.37	35.339
771.55	35.422
771.73	35.411
771.91	35.357
772.09	35.359
772.27	35.383
772.45	35.430
772.63	35.401
772.81	35.465
772.99	35.396
773.16	35.458
773.34	35.412
773.52	35.338
773.70	35.276
773.88	35.285
774.06	35.312
774.24	35.400
774.42	35.366
774.60	35.469
774.78	35.368
774.95	35.429
775.13	35.465
775.31	35.497
775.49	35.502
775.67	35.589
775.85	35.625
776.03	35.617
776.21	35.573
776.38	35.615
776.56	35.616
776.74	35.673
776.92	35.655
777.10	35.639
777.28	35.650
777.46	35.695
777.64	35.665
777.81	35.648
777.99	35.651
778.17	35.618
778.35	35.726
778.53	35.707
778.71	35.830
778.89	35.828
779.06	35.854
779.24	35.813
779.42	35.721
779.60	35.719
779.78	35.777
779.96	35.860
780.13	35.948
780.31	35.873
780.49	35.929
780.67	35.820
780.85	35.941
781.03	35.886
781.20	35.890
781.38	35.944
781.56	36.093
781.74	36.101
781.92	35.942
782.10	35.959
782.27	36.017
782.45	35.951
782.63	35.904
782.81	35.825
782.99	35.887
783.17	35.912
783.34	35.954
783.52	35.855
783.70	35.844
783.88	35.954
784.06	35.940
784.23	35.917
784.41	35.978
784.59	36.030
784.77	35.964
784.95	36.024
785.12	36.017
785.30	35.945
785.48	35.903
785.66	35.773
785.83	35.799
786.01	35.836
786.19	35.832
786.37	35.745
786.55	35.800
786.72	35.884
786.90	35.930
787.08	35.990
787.26	36.113
787.43	36.154
787.61	36.268
787.79	36.218
787.97	36.137
788.15	36.159
788.32	36.169
788.50	36.185
788.68	36.155
788.86	36.062
789.03	36.053
789.21	35.977
789.39	36.029
789.57	35.927
789.74	35.895
789.92	35.950
790.10	35.990
790.28	36.052
790.45	36.115
790.63	36.248
790.81	36.323
790.99	36.222
791.16	36.267
791.34	36.202
791.52	36.238
791.69	36.284
791.87	36.247
792.05	36.175
792.23	36.187
792.40	36.053
792.58	35.975
792.76	35.889
792.94	35.983
793.11	35.968
793.29	35.974
793.47	36.021
793.64	36.094
793.82	36.207
794.00	36.241
794.18	36.157
794.35	36.276
794.53	36.252
794.71	36.239
794.88	36.308
795.06	36.425
795.24	36.453
795.41	36.514
795.59	36.532
795.77	36.602
795.94	36.536
796.12	36.646
796.30	36.616
796.48	36.529
796.65	36.515
796.83	36.559
797.01	36.518
797.18	36.473
797.36	36.509
797.54	36.455
797.71	36.366
797.89	36.444
798.07	36.330
798.24	36.310
798.42	36.261
798.60	36.335
798.77	36.368
798.95	36.347
799.13	36.376
799.30	36.308
799.48	36.327
799.66	36.284
799.83	36.265
800.01	36.382
800.18	36.394
800.36	36.488
800.54	36.538
800.71	36.375
800.89	36.413
801.07	36.313
801.24	36.373
801.42	36.501
801.60	36.557
801.77	36.525
801.95	36.520
802.12	36.526
802.30	36.569
802.48	36.515
802.65	36.609
802.83	36.702
803.01	36.917
803.18	36.841
803.36	36.775
803.53	36.719
803.71	36.786
803.89	36.778
804.06	36.772
804.24	36.918
804.41	36.904
804.59	36.966
804.77	37.065
804.94	37.015
805.12	37.045
805.29	37.096
805.47	37.141
805.65	37.232
805.82	37.248
806.00	37.271
806.17	37.064
806.35	37.089
806.53	37.088
806.70	36.902
806.88	36.926
807.05	37.013
807.23	36.849
807.40	36.918
807.58	36.863
807.76	36.935
807.93	36.933
808.11	36.976
808.28	37.008
808.46	36.869
808.63	36.894
808.81	36.901
808.99	36.915
809.16	37.106
809.34	37.120
809.51	37.020
809.69	36.843
809.86	36.803
810.04	36.794
810.21	36.654
810.39	36.784
810.57	36.715
810.74	36.644
810.92	36.510
811.09	36.439
811.27	36.320
811.44	36.416
811.62	36.479
811.79	36.629
811.97	36.723
812.14	36.853
812.32	36.869
812.49	36.913
812.67	37.091
812.84	37.124
813.02	37.192
813.19	37.299
813.37	37.112
813.55	37.170
813.72	37.124
813.90	37.293
814.07	37.438
814.25	37.354
814.42	37.446
814.60	37.227
814.77	37.324
814.95	37.235
815.12	37.238
815.30	37.574
815.47	37.485
815.65	37.500
815.82	37.405
816.00	37.397
816.17	37.372
816.35	37.286
816.52	37.451
816.69	37.449
816.87	37.464
817.04	37.392
817.22	37.298
817.39	37.423
817.57	37.432
817.74	37.496
817.92	37.470
818.09	37.486
818.27	37.512
818.44	37.491
818.62	37.449
818.79	37.478
818.97	37.519
819.14	37.543
819.32	37.456
819.49	37.531
819.66	37.453
819.84	37.464
820.01	37.489
820.19	37.465
820.36	37.381
820.54	37.482
820.71	37.503
820.89	37.584
821.06	37.662
821.23	37.782
821.41	37.687
821.58	37.653
821.76	37.491
821.93	37.355
822.11	37.226
822.28	37.107
822.45	36.922
822.63	36.823
822.80	36.748
822.98	36.670
823.15	36.597
823.33	36.548
823.50	36.474
823.67	36.448
823.85	36.428
824.02	36.437
824.20	36.476
824.37	36.618
824.54	36.725
824.72	36.822
824.89	36.919
825.07	37.000
825.24	37.089
825.41	37.208
825.59	37.301
825.76	37.397
825.94	37.512
826.11	37.618
826.28	37.666
826.46	37.726
826.63	37.700
826.80	37.669
826.98	37.615
827.15	37.558
827.33	37.480
827.50	37.420
827.67	37.349
827.85	37.268
828.02	37.203
828.19	37.165
828.37	37.088
828.54	37.112
828.72	37.140
828.89	37.117
829.06	37.114
829.24	37.216
829.41	37.297
829.58	37.424
829.76	37.543
829.93	37.667
830.10	37.689
830.28	37.723
830.45	37.774
830.62	37.790
830.80	37.959
830.97	38.092
831.14	38.051
831.32	38.079
831.49	38.082
831.66	37.922
831.84	37.788
832.01	37.797
832.18	37.982
832.36	37.934
832.53	38.024
832.70	38.012
832.88	38.099
833.05	38.085
833.22	37.950
833.40	37.901
833.57	37.889
833.74	37.863
833.91	37.852
834.09	37.704
834.26	37.609
834.43	37.547
834.61	37.500
834.78	37.390
834.95	37.365
835.13	37.362
835.30	37.316
835.47	37.284
835.64	37.318
835.82	37.315
835.99	37.376
836.16	37.522
836.34	37.543
836.51	37.645
836.68	37.679
836.85	37.669
837.03	37.817
837.20	37.952
837.37	38.101
837.54	38.050
837.72	38.144
837.89	38.147
838.06	38.038
838.24	38.016
838.41	38.100
838.58	38.056
838.75	38.100
838.93	38.036
839.10	38.069
839.27	38.029
839.44	38.093
839.62	38.204
839.79	38.442
839.96	38.419
840.13	38.461
840.31	38.319
840.48	38.437
840.65	38.405
840.82	38.408
840.99	38.469
841.17	38.518
841.34	38.586
841.51	38.288
841.68	38.094
841.86	38.140
842.03	38.183
842.20	38.220
842.37	38.227
842.55	38.207
842.72	38.245
842.89	38.051
843.06	38.063
843.23	37.946
843.41	38.107
843.58	38.106
843.75	38.079
843.92	38.041
844.09	38.002
844.27	37.984
844.44	38.256
844.61	38.118
844.78	38.144
844.95	37.853
845.13	37.955
845.30	37.983
845.47	38.084
845.64	38.494
845.81	38.364
845.98	38.333
846.16	38.203
846.33	38.155
846.50	38.284
846.67	38.442
846.84	38.805
847.02	38.745
847.19	38.652
847.36	38.287
847.53	37.582
847.70	37.889
847.87	38.159
848.04	38.172
848.22	37.917
848.39	37.487
848.56	37.344
848.73	37.512
848.90	37.520
849.07	37.736
849.25	38.143
849.42	38.442
849.59	38.019
849.76	37.869
849.93	38.121
850.10	38.111
850.27	38.530
850.45	38.840
850.62	38.615
850.79	38.477
850.96	38.097
851.13	38.031
851.30	37.798
851.47	37.976
851.64	38.074
851.82	37.974
851.99	38.311
852.16	38.419
852.33	37.914
852.50	38.029
852.67	38.222
852.84	38.333
853.01	38.219
853.18	38.696
853.35	38.460
853.53	38.282
853.70	38.449
853.87	38.708
854.04	38.475
854.21	38.871
854.38	38.653
854.55	38.439
854.72	38.194
854.89	38.360
855.06	38.196
855.23	38.331
855.41	38.325
855.58	38.233
855.75	37.907
855.92	37.757
856.09	37.440
856.26	37.308
856.43	37.468
856.60	37.670
856.77	37.596
856.94	37.294
857.11	37.279
857.28	37.427
857.45	37.244
857.62	37.169
857.80	37.263
857.97	37.158
858.14	37.606
858.31	37.335
858.48	37.587
858.65	37.904
858.82	38.125
858.99	38.205
859.16	38.095
859.33	38.445
859.50	38.445
859.67	38.486
859.84	38.699
860.01	38.489
860.18	38.830
860.35	39.074
860.52	38.827
860.69	38.705
860.86	38.716
861.03	38.512
861.20	38.390
861.37	38.457
861.54	38.554
861.71	38.095
861.88	38.067
862.05	38.232
862.22	37.711
862.39	37.703
862.56	37.875
862.73	38.099
862.90	38.385
863.07	38.279
863.24	38.126
863.41	38.016
863.58	38.659
863.75	38.366
863.92	37.905
864.09	38.120
864.26	38.088
864.43	38.156
864.60	38.167
864.77	38.116
864.94	38.384
865.11	38.511
865.28	38.489
865.45	38.276
865.62	38.352
865.79	38.459
865.96	38.296
866.13	38.315
866.30	38.000
866.47	37.690
866.64	37.554
866.81	37.129
866.98	37.306
867.15	37.388
867.32	37.548
867.49	37.440
867.66	37.717
867.82	38.157
867.99	38.437
868.16	39.047
868.33	38.920
868.50	39.109
868.67	39.515
868.84	39.168
869.01	39.289
869.18	39.229
869.35	39.657
869.52	39.909
869.69	39.699
869.86	39.854
870.03	39.541
870.19	39.592
870.36	39.925
870.53	39.490
870.70	39.434
870.87	39.640
871.04	39.681
871.21	39.586
871.38	39.263
871.55	39.221
871.72	38.680
871.89	38.848
872.05	39.034
872.22	38.598
872.39	38.719
872.56	39.078
872.73	38.595
872.90	38.626
873.07	38.666
873.24	38.850
873.41	39.137
873.57	39.284
873.74	38.916
873.91	38.825
874.08	39.004
874.25	39.234
874.42	38.911
874.59	39.158
874.76	38.864
874.92	38.914
875.09	38.595
875.26	38.264
875.43	38.176
875.60	38.202
875.77	38.247
875.94	38.140
876.11	38.489
876.27	38.908
876.44	38.838
876.61	39.385
876.78	39.194
876.95	39.333
877.12	39.524
877.28	39.642
877.45	39.976
877.62	39.947
877.79	40.034
877.96	39.731
878.13	39.349
878.29	39.525
878.46	39.136
878.63	39.254
878.80	39.352
878.97	39.414
879.14	39.462
879.30	39.529
879.47	39.795
879.64	39.841
879.81	39.775
879.98	39.979
880.14	40.092
880.31	40.203
880.48	40.422
880.65	40.506
880.82	40.364
880.98	40.097
881.15	39.862
881.32	39.583
881.49	39.334
881.66	39.192
881.82	39.043
881.99	38.860
882.16	38.771
882.33	38.626
882.50	38.489
882.66	38.421
882.83	38.382
883.00	38.340
883.17	38.373
883.33	38.427
883.50	38.485
883.67	38.523
883.84	38.597
884.01	38.662
884.17	38.758
884.34	38.834
884.51	38.894
884.68	38.970
884.84	39.031
885.01	39.017
885.18	39.061
885.35	39.021
885.51	39.071
885.68	39.183
885.85	39.156
886.02	39.088
886.18	39.200
886.35	39.176
886.52	39.324
886.69	39.343
886.85	39.427
887.02	39.264
887.19	39.239
887.35	39.277
887.52	39.180
887.69	39.345
887.86	39.409
888.02	39.471
888.19	39.567
888.36	38.907
888.53	40.883
888.69	39.315
888.86	41.800
889.03	39.842
>>>>>End Spectral Data<<<<<
