OOIBase32 Version 2.0.6.5 Data File
++++++++++++++++++++++++++++++++++++
Date: 11-17-2016, 11:09:11
User: Valued Ocean Optics Customer
Spectrometer Serial Number: USB4C01507
Spectrometer Channel: Master
Integration Time (msec): 49
Spectra Averaged: 25
Boxcar Smoothing: 5
Correct for Electrical Dark: Enabled
Time Normalized: Disabled
Dual-beam Reference: Disabled
Reference Channel: Master
Temperature: Not acquired
Spectrometer Type: S4000
ADC Type: USB4000
Number of Pixels in File: 3648
Graph Title: 
>>>>>Begin Spectral Data<<<<<
178.53	1708.273
178.74	2314.137
178.96	182.229
179.18	8.817
179.39	495.618
179.61	-54.229
179.82	165.075
180.04	97.023
180.25	145.780
180.47	-34.019
180.69	-28.405
180.90	383.091
181.12	-203.650
181.33	164.681
181.55	54.562
181.76	254.949
181.98	111.934
182.20	511.275
182.41	98.265
182.63	17.155
182.84	48.991
183.06	36.435
183.27	38.636
183.49	36.060
183.71	23.971
183.92	21.248
184.14	17.665
184.35	15.025
184.57	7.876
184.78	13.567
185.00	26.058
185.21	12.565
185.43	30.014
185.65	30.547
185.86	21.806
186.08	24.497
186.29	30.145
186.51	27.014
186.72	32.820
186.94	40.036
187.15	36.609
187.37	35.418
187.58	45.415
187.80	40.551
188.02	36.193
188.23	38.312
188.45	41.085
188.66	39.764
188.88	39.799
189.09	37.642
189.31	37.119
189.52	33.258
189.74	25.305
189.95	29.530
190.17	34.679
190.38	36.770
190.60	33.595
190.82	38.906
191.03	39.381
191.25	38.789
191.46	35.377
191.68	29.497
191.89	31.319
192.11	38.437
192.32	28.017
192.54	25.927
192.75	32.902
192.97	31.009
193.18	26.730
193.40	28.691
193.61	31.149
193.83	31.797
194.04	29.770
194.26	33.383
194.48	29.046
194.69	31.828
194.91	21.082
195.12	16.426
195.34	23.637
195.55	26.355
195.77	18.197
195.98	16.484
196.20	18.166
196.41	11.010
196.63	4.709
196.84	8.156
197.06	14.661
197.27	18.002
197.49	17.678
197.70	10.572
197.92	0.572
198.13	7.532
198.35	9.402
198.56	10.469
198.78	16.863
198.99	28.094
199.21	27.090
199.42	22.038
199.64	29.289
199.85	32.686
200.07	36.703
200.28	41.530
200.50	35.592
200.71	35.280
200.93	36.237
201.14	37.294
201.36	32.045
201.57	32.925
201.79	32.444
202.00	28.549
202.22	28.384
202.43	30.994
202.65	32.095
202.86	34.500
203.08	33.988
203.29	27.515
203.51	24.813
203.72	23.590
203.94	23.374
204.15	22.359
204.37	23.419
204.58	20.950
204.80	17.357
205.01	16.597
205.22	19.314
205.44	21.014
205.65	20.826
205.87	21.525
206.08	25.947
206.30	26.590
206.51	27.657
206.73	26.833
206.94	27.341
207.16	25.102
207.37	24.189
207.59	21.537
207.80	20.602
208.02	24.037
208.23	26.719
208.45	26.142
208.66	20.595
208.88	18.609
209.09	21.038
209.30	20.719
209.52	21.027
209.73	22.358
209.95	23.420
210.16	19.300
210.38	19.420
210.59	15.886
210.81	10.882
211.02	16.493
211.24	16.076
211.45	12.893
211.66	15.172
211.88	14.680
212.09	14.341
212.31	13.939
212.52	16.996
212.74	13.273
212.95	13.892
213.17	17.426
213.38	17.706
213.60	18.890
213.81	21.698
214.02	20.371
214.24	20.130
214.45	15.914
214.67	14.627
214.88	13.298
215.10	14.709
215.31	14.006
215.53	12.704
215.74	12.130
215.95	13.190
216.17	9.823
216.38	8.574
216.60	9.604
216.81	13.104
217.03	13.520
217.24	13.700
217.45	12.454
217.67	13.587
217.88	14.033
218.10	12.413
218.31	10.742
218.53	12.097
218.74	11.860
218.95	9.783
219.17	8.276
219.38	8.322
219.60	10.061
219.81	13.061
220.03	12.141
220.24	12.466
220.45	11.550
220.67	11.209
220.88	11.090
221.10	12.138
221.31	13.249
221.53	12.816
221.74	12.171
221.95	11.246
222.17	8.745
222.38	8.781
222.60	8.342
222.81	7.701
223.02	8.272
223.24	8.084
223.45	8.156
223.67	6.818
223.88	6.994
224.09	7.780
224.31	7.326
224.52	9.300
224.74	8.682
224.95	8.533
225.16	9.214
225.38	8.668
225.59	8.791
225.81	8.061
226.02	8.459
226.23	8.170
226.45	8.002
226.66	7.490
226.88	6.952
227.09	7.269
227.30	6.936
227.52	6.780
227.73	6.287
227.95	6.124
228.16	6.112
228.37	6.042
228.59	6.109
228.80	6.078
229.02	6.102
229.23	6.057
229.44	5.965
229.66	5.990
229.87	5.945
230.08	6.200
230.30	6.206
230.51	6.188
230.73	6.366
230.94	6.389
231.15	6.313
231.37	6.429
231.58	6.471
231.80	6.461
232.01	6.540
232.22	6.703
232.44	6.616
232.65	6.709
232.86	6.598
233.08	6.269
233.29	6.224
233.51	6.282
233.72	6.131
233.93	6.009
234.15	6.189
234.36	6.068
234.57	5.939
234.79	5.946
235.00	6.103
235.21	6.447
235.43	6.617
235.64	6.353
235.86	6.509
236.07	6.573
236.28	6.622
236.50	6.330
236.71	6.437
236.92	6.660
237.14	6.644
237.35	6.645
237.56	6.604
237.78	6.620
237.99	6.812
238.20	6.568
238.42	6.717
238.63	6.516
238.84	7.006
239.06	6.957
239.27	6.503
239.48	6.386
239.70	6.374
239.91	6.129
240.13	5.926
240.34	5.812
240.55	5.926
240.77	5.784
240.98	5.799
241.19	5.622
241.41	5.475
241.62	5.517
241.83	5.480
242.05	5.410
242.26	5.476
242.47	5.515
242.69	5.523
242.90	5.489
243.11	5.515
243.33	5.463
243.54	5.411
243.75	5.500
243.97	5.464
244.18	5.572
244.39	5.542
244.61	5.341
244.82	5.353
245.03	5.392
245.24	5.310
245.46	5.263
245.67	5.390
245.88	5.394
246.10	5.352
246.31	5.374
246.52	5.358
246.74	5.350
246.95	5.389
247.16	5.375
247.38	5.365
247.59	5.392
247.80	5.450
248.02	5.452
248.23	5.465
248.44	5.491
248.66	5.526
248.87	5.548
249.08	5.610
249.29	5.715
249.51	5.847
249.72	6.083
249.93	6.185
250.15	6.287
250.36	6.299
250.57	6.309
250.79	6.444
251.00	6.456
251.21	6.369
251.42	6.344
251.64	6.158
251.85	6.064
252.06	5.985
252.28	5.847
252.49	5.754
252.70	5.751
252.91	5.743
253.13	5.684
253.34	5.670
253.55	5.723
253.77	5.718
253.98	5.821
254.19	5.750
254.40	5.615
254.62	5.943
254.83	5.771
255.04	5.885
255.26	6.089
255.47	5.895
255.68	5.849
255.89	5.959
256.11	5.902
256.32	5.833
256.53	5.997
256.75	5.931
256.96	5.659
257.17	5.890
257.38	5.875
257.60	5.863
257.81	5.898
258.02	5.731
258.23	5.466
258.45	5.364
258.66	5.372
258.87	5.267
259.09	5.281
259.30	5.261
259.51	5.196
259.72	5.187
259.94	5.125
260.15	5.116
260.36	5.170
260.57	5.204
260.79	5.209
261.00	5.184
261.21	5.175
261.42	5.168
261.64	5.246
261.85	5.235
262.06	5.149
262.27	5.307
262.49	5.347
262.70	5.316
262.91	5.406
263.12	5.418
263.34	5.435
263.55	5.451
263.76	5.462
263.97	5.515
264.19	5.690
264.40	5.730
264.61	5.590
264.82	5.626
265.04	5.620
265.25	5.487
265.46	5.439
265.67	5.519
265.88	5.606
266.10	5.488
266.31	5.380
266.52	5.232
266.73	5.362
266.95	5.364
267.16	5.271
267.37	5.203
267.58	5.135
267.80	5.189
268.01	5.059
268.22	4.955
268.43	5.045
268.64	4.999
268.86	5.016
269.07	4.847
269.28	4.733
269.49	4.772
269.71	4.800
269.92	4.843
270.13	4.869
270.34	4.885
270.55	4.880
270.77	4.915
270.98	4.874
271.19	4.991
271.40	5.013
271.61	5.003
271.83	4.981
272.04	4.982
272.25	5.022
272.46	4.973
272.68	5.021
272.89	5.050
273.10	4.969
273.31	4.944
273.52	4.876
273.74	4.889
273.95	4.924
274.16	4.936
274.37	4.970
274.58	4.932
274.80	4.987
275.01	4.919
275.22	4.933
275.43	4.987
275.64	5.111
275.86	5.170
276.07	5.099
276.28	5.195
276.49	5.233
276.70	5.149
276.91	5.201
277.13	5.180
277.34	5.261
277.55	5.306
277.76	5.229
277.97	5.157
278.19	5.120
278.40	5.195
278.61	5.102
278.82	5.022
279.03	5.116
279.24	5.023
279.46	4.996
279.67	4.895
279.88	4.728
280.09	4.753
280.30	4.755
280.52	4.766
280.73	4.737
280.94	4.873
281.15	4.885
281.36	4.823
281.57	4.907
281.79	4.973
282.00	5.061
282.21	5.048
282.42	5.025
282.63	5.095
282.84	5.004
283.06	5.054
283.27	4.948
283.48	5.025
283.69	4.969
283.90	4.961
284.11	4.873
284.32	4.836
284.54	4.872
284.75	4.883
284.96	4.810
285.17	4.931
285.38	4.910
285.59	4.958
285.81	4.949
286.02	5.015
286.23	4.985
286.44	5.055
286.65	5.102
286.86	5.096
287.07	5.073
287.29	5.093
287.50	5.058
287.71	5.047
287.92	5.034
288.13	5.026
288.34	5.015
288.55	5.092
288.77	5.065
288.98	5.042
289.19	5.144
289.40	5.252
289.61	5.303
289.82	5.247
290.03	5.304
290.24	5.354
290.46	5.369
290.67	5.467
290.88	5.480
291.09	5.490
291.30	5.535
291.51	5.575
291.72	5.616
291.93	5.695
292.15	5.735
292.36	5.892
292.57	5.868
292.78	5.858
292.99	5.761
293.20	5.849
293.41	5.858
293.62	5.902
293.84	5.964
294.05	5.983
294.26	5.948
294.47	6.049
294.68	5.987
294.89	6.063
295.10	6.156
295.31	6.282
295.52	6.262
295.73	6.301
295.95	6.312
296.16	6.331
296.37	6.404
296.58	6.461
296.79	6.440
297.00	6.462
297.21	6.423
297.42	6.393
297.63	6.406
297.84	6.438
298.06	6.458
298.27	6.512
298.48	6.574
298.69	6.544
298.90	6.511
299.11	6.627
299.32	6.644
299.53	6.763
299.74	6.883
299.95	6.886
300.16	6.902
300.38	6.940
300.59	6.879
300.80	6.819
301.01	6.757
301.22	6.756
301.43	6.701
301.64	6.676
301.85	6.610
302.06	6.627
302.27	6.689
302.48	6.723
302.69	6.794
302.91	6.857
303.12	6.962
303.33	7.076
303.54	7.162
303.75	7.149
303.96	7.193
304.17	7.265
304.38	7.214
304.59	7.200
304.80	7.217
305.01	7.216
305.22	7.259
305.43	7.253
305.64	7.282
305.85	7.296
306.06	7.402
306.28	7.504
306.49	7.522
306.70	7.521
306.91	7.539
307.12	7.562
307.33	7.492
307.54	7.543
307.75	7.513
307.96	7.529
308.17	7.530
308.38	7.462
308.59	7.479
308.80	7.538
309.01	7.702
309.22	7.736
309.43	7.752
309.64	7.895
309.85	7.847
310.06	7.884
310.27	7.932
310.48	8.027
310.70	8.142
310.91	8.228
311.12	8.231
311.33	8.218
311.54	8.217
311.75	8.245
311.96	8.233
312.17	8.318
312.38	8.360
312.59	8.424
312.80	8.424
313.01	8.465
313.22	8.399
313.43	8.407
313.64	8.415
313.85	8.464
314.06	8.548
314.27	8.598
314.48	8.670
314.69	8.795
314.90	8.824
315.11	8.902
315.32	8.905
315.53	8.975
315.74	9.034
315.95	9.122
316.16	9.197
316.37	9.210
316.58	9.324
316.79	9.237
317.00	9.184
317.21	9.205
317.42	9.221
317.63	9.303
317.84	9.284
318.05	9.359
318.26	9.403
318.47	9.449
318.68	9.543
318.89	9.574
319.10	9.696
319.31	9.806
319.52	9.902
319.73	9.978
319.94	10.085
320.15	10.203
320.36	10.284
320.57	10.318
320.78	10.334
320.99	10.296
321.20	10.325
321.41	10.365
321.62	10.387
321.83	10.372
322.04	10.435
322.25	10.407
322.46	10.464
322.67	10.502
322.88	10.589
323.09	10.683
323.30	10.737
323.51	10.763
323.72	10.862
323.93	10.884
324.14	11.017
324.35	11.058
324.56	11.119
324.77	11.169
324.98	11.174
325.19	11.228
325.40	11.385
325.61	11.492
325.82	11.620
326.03	11.638
326.24	11.690
326.45	11.676
326.65	11.674
326.86	11.709
327.07	11.775
327.28	11.888
327.49	11.947
327.70	11.877
327.91	11.887
328.12	11.861
328.33	11.865
328.54	12.015
328.75	12.102
328.96	12.188
329.17	12.253
329.38	12.304
329.59	12.301
329.80	12.352
330.01	12.487
330.22	12.613
330.43	12.697
330.64	12.827
330.85	12.858
331.05	12.882
331.26	12.969
331.47	12.986
331.68	13.043
331.89	13.110
332.10	13.122
332.31	13.120
332.52	13.108
332.73	13.128
332.94	13.180
333.15	13.200
333.36	13.267
333.57	13.283
333.78	13.369
333.99	13.378
334.19	13.507
334.40	13.610
334.61	13.733
334.82	13.877
335.03	13.913
335.24	13.985
335.45	14.082
335.66	14.168
335.87	14.231
336.08	14.291
336.29	14.363
336.50	14.363
336.71	14.424
336.91	14.449
337.12	14.395
337.33	14.509
337.54	14.580
337.75	14.640
337.96	14.644
338.17	14.748
338.38	14.766
338.59	14.857
338.80	14.899
339.01	14.936
339.21	14.963
339.42	15.024
339.63	15.067
339.84	15.127
340.05	15.185
340.26	15.219
340.47	15.204
340.68	15.294
340.89	15.323
341.10	15.362
341.30	15.385
341.51	15.472
341.72	15.595
341.93	15.656
342.14	15.659
342.35	15.674
342.56	15.780
342.77	15.843
342.98	15.851
343.18	15.896
343.39	15.980
343.60	16.013
343.81	16.042
344.02	16.107
344.23	16.194
344.44	16.241
344.65	16.316
344.85	16.326
345.06	16.400
345.27	16.479
345.48	16.518
345.69	16.613
345.90	16.741
346.11	16.794
346.32	16.784
346.52	16.792
346.73	16.833
346.94	16.851
347.15	16.941
347.36	16.967
347.57	17.054
347.78	17.136
347.98	17.109
348.19	17.110
348.40	17.167
348.61	17.275
348.82	17.310
349.03	17.420
349.24	17.449
349.44	17.516
349.65	17.566
349.86	17.596
350.07	17.666
350.28	17.750
350.49	17.795
350.70	17.837
350.90	17.870
351.11	17.904
351.32	17.939
351.53	18.061
351.74	18.086
351.95	18.130
352.15	18.197
352.36	18.247
352.57	18.289
352.78	18.380
352.99	18.426
353.20	18.489
353.40	18.593
353.61	18.651
353.82	18.648
354.03	18.705
354.24	18.765
354.45	18.879
354.65	18.927
354.86	18.965
355.07	19.031
355.28	19.111
355.49	19.139
355.70	19.153
355.90	19.167
356.11	19.250
356.32	19.333
356.53	19.406
356.74	19.376
356.94	19.400
357.15	19.468
357.36	19.457
357.57	19.527
357.78	19.592
357.99	19.646
358.19	19.712
358.40	19.748
358.61	19.748
358.82	19.818
359.03	19.874
359.23	19.968
359.44	20.039
359.65	20.106
359.86	20.141
360.07	20.214
360.27	20.299
360.48	20.371
360.69	20.453
360.90	20.509
361.11	20.610
361.31	20.694
361.52	20.733
361.73	20.798
361.94	20.898
362.15	20.931
362.35	20.966
362.56	20.991
362.77	21.045
362.98	21.086
363.18	21.172
363.39	21.137
363.60	21.168
363.81	21.212
364.02	21.279
364.22	21.337
364.43	21.368
364.64	21.430
364.85	21.477
365.05	21.490
365.26	21.551
365.47	21.604
365.68	21.678
365.89	21.717
366.09	21.795
366.30	21.810
366.51	21.826
366.72	21.907
366.92	21.956
367.13	22.072
367.34	22.143
367.55	22.152
367.75	22.203
367.96	22.271
368.17	22.316
368.38	22.354
368.58	22.416
368.79	22.448
369.00	22.537
369.21	22.609
369.41	22.633
369.62	22.674
369.83	22.773
370.04	22.806
370.24	22.841
370.45	22.928
370.66	22.983
370.87	23.002
371.07	23.049
371.28	23.052
371.49	23.094
371.70	23.153
371.90	23.224
372.11	23.234
372.32	23.284
372.53	23.376
372.73	23.422
372.94	23.468
373.15	23.511
373.36	23.606
373.56	23.686
373.77	23.752
373.98	23.819
374.19	23.841
374.39	23.938
374.60	24.009
374.81	24.033
375.01	24.098
375.22	24.104
375.43	24.236
375.64	24.287
375.84	24.314
376.05	24.329
376.26	24.370
376.46	24.421
376.67	24.466
376.88	24.513
377.09	24.536
377.29	24.554
377.50	24.617
377.71	24.630
377.91	24.653
378.12	24.707
378.33	24.773
378.54	24.824
378.74	24.889
378.95	24.939
379.16	25.027
379.36	25.112
379.57	25.189
379.78	25.275
379.99	25.350
380.19	25.389
380.40	25.440
380.61	25.459
380.81	25.457
381.02	25.517
381.23	25.568
381.43	25.595
381.64	25.659
381.85	25.723
382.05	25.763
382.26	25.787
382.47	25.884
382.67	25.961
382.88	26.052
383.09	26.164
383.30	26.212
383.50	26.276
383.71	26.311
383.92	26.375
384.12	26.424
384.33	26.449
384.54	26.523
384.74	26.582
384.95	26.654
385.16	26.662
385.36	26.690
385.57	26.728
385.78	26.780
385.98	26.893
386.19	26.910
386.40	26.980
386.60	27.060
386.81	27.094
387.02	27.147
387.22	27.161
387.43	27.244
387.64	27.295
387.84	27.359
388.05	27.431
388.26	27.439
388.46	27.510
388.67	27.557
388.88	27.610
389.08	27.675
389.29	27.731
389.49	27.775
389.70	27.840
389.91	27.907
390.11	27.949
390.32	27.978
390.53	28.060
390.73	28.136
390.94	28.193
391.15	28.239
391.35	28.323
391.56	28.377
391.77	28.469
391.97	28.543
392.18	28.604
392.38	28.715
392.59	28.784
392.80	28.834
393.00	28.892
393.21	28.950
393.42	29.026
393.62	29.080
393.83	29.116
394.04	29.142
394.24	29.161
394.45	29.193
394.65	29.226
394.86	29.272
395.07	29.319
395.27	29.324
395.48	29.364
395.68	29.432
395.89	29.444
396.10	29.533
396.30	29.572
396.51	29.631
396.72	29.737
396.92	29.779
397.13	29.853
397.33	29.905
397.54	29.974
397.75	30.063
397.95	30.106
398.16	30.176
398.36	30.196
398.57	30.294
398.78	30.371
398.98	30.406
399.19	30.456
399.39	30.495
399.60	30.545
399.81	30.612
400.01	30.658
400.22	30.733
400.42	30.813
400.63	30.863
400.84	30.928
401.04	30.961
401.25	31.017
401.45	31.092
401.66	31.173
401.86	31.248
402.07	31.344
402.28	31.406
402.48	31.475
402.69	31.530
402.89	31.616
403.10	31.670
403.31	31.749
403.51	31.811
403.72	31.879
403.92	31.910
404.13	31.967
404.33	31.996
404.54	32.037
404.75	32.093
404.95	32.177
405.16	32.217
405.36	32.310
405.57	32.376
405.77	32.426
405.98	32.478
406.18	32.497
406.39	32.494
406.60	32.532
406.80	32.557
407.01	32.631
407.21	32.660
407.42	32.750
407.62	32.754
407.83	32.795
408.03	32.858
408.24	32.923
408.45	33.001
408.65	33.113
408.86	33.184
409.06	33.291
409.27	33.324
409.47	33.342
409.68	33.372
409.88	33.453
410.09	33.512
410.29	33.559
410.50	33.604
410.71	33.693
410.91	33.731
411.12	33.751
411.32	33.815
411.53	33.862
411.73	33.930
411.94	33.979
412.14	33.997
412.35	34.029
412.55	34.086
412.76	34.127
412.96	34.162
413.17	34.219
413.37	34.304
413.58	34.348
413.78	34.388
413.99	34.479
414.19	34.570
414.40	34.681
414.61	34.770
414.81	34.828
415.02	34.874
415.22	34.953
415.43	35.034
415.63	35.099
415.84	35.146
416.04	35.221
416.25	35.289
416.45	35.350
416.66	35.408
416.86	35.456
417.07	35.498
417.27	35.564
417.48	35.592
417.68	35.626
417.89	35.648
418.09	35.682
418.30	35.693
418.50	35.705
418.71	35.736
418.91	35.769
419.12	35.801
419.32	35.863
419.53	35.907
419.73	35.983
419.94	36.044
420.14	36.113
420.34	36.172
420.55	36.205
420.75	36.243
420.96	36.276
421.16	36.304
421.37	36.352
421.57	36.401
421.78	36.439
421.98	36.486
422.19	36.533
422.39	36.613
422.60	36.691
422.80	36.790
423.01	36.873
423.21	36.944
423.42	36.966
423.62	36.975
423.83	36.979
424.03	36.996
424.23	37.015
424.44	37.043
424.64	37.050
424.85	37.077
425.05	37.115
425.26	37.142
425.46	37.189
425.67	37.265
425.87	37.354
426.08	37.448
426.28	37.520
426.48	37.584
426.69	37.656
426.89	37.716
427.10	37.764
427.30	37.821
427.51	37.890
427.71	37.919
427.92	37.939
428.12	37.988
428.32	37.994
428.53	38.051
428.73	38.085
428.94	38.108
429.14	38.137
429.35	38.139
429.55	38.161
429.76	38.192
429.96	38.216
430.16	38.291
430.37	38.311
430.57	38.343
430.78	38.386
430.98	38.425
431.19	38.478
431.39	38.552
431.59	38.618
431.80	38.668
432.00	38.664
432.21	38.688
432.41	38.680
432.61	38.711
432.82	38.728
433.02	38.751
433.23	38.771
433.43	38.789
433.64	38.808
433.84	38.830
434.04	38.857
434.25	38.925
434.45	38.963
434.66	39.047
434.86	39.109
435.06	39.188
435.27	39.262
435.47	39.332
435.68	39.381
435.88	39.415
436.08	39.441
436.29	39.479
436.49	39.525
436.70	39.569
436.90	39.574
437.10	39.610
437.31	39.655
437.51	39.718
437.71	39.760
437.92	39.825
438.12	39.869
438.33	39.928
438.53	39.947
438.73	39.948
438.94	39.968
439.14	40.017
439.35	40.062
439.55	40.119
439.75	40.147
439.96	40.173
440.16	40.200
440.36	40.232
440.57	40.245
440.77	40.292
440.97	40.361
441.18	40.421
441.38	40.464
441.59	40.496
441.79	40.518
441.99	40.529
442.20	40.583
442.40	40.629
442.60	40.680
442.81	40.737
443.01	40.786
443.21	40.821
443.42	40.866
443.62	40.922
443.83	40.964
444.03	40.985
444.23	41.029
444.44	41.067
444.64	41.096
444.84	41.102
445.05	41.144
445.25	41.138
445.45	41.131
445.66	41.112
445.86	41.085
446.06	41.095
446.27	41.093
446.47	41.089
446.67	41.105
446.88	41.114
447.08	41.149
447.28	41.162
447.49	41.216
447.69	41.254
447.89	41.312
448.10	41.402
448.30	41.472
448.50	41.537
448.71	41.613
448.91	41.624
449.11	41.622
449.32	41.646
449.52	41.686
449.72	41.718
449.93	41.778
450.13	41.833
450.33	41.861
450.53	41.861
450.74	41.894
450.94	41.938
451.14	41.997
451.35	42.076
451.55	42.118
451.75	42.114
451.96	42.116
452.16	42.115
452.36	42.125
452.57	42.140
452.77	42.184
452.97	42.224
453.17	42.220
453.38	42.258
453.58	42.257
453.78	42.249
453.99	42.301
454.19	42.367
454.39	42.439
454.59	42.465
454.80	42.505
455.00	42.519
455.20	42.547
455.41	42.586
455.61	42.610
455.81	42.698
456.01	42.789
456.22	42.841
456.42	42.880
456.62	42.913
456.83	42.972
457.03	42.990
457.23	43.014
457.43	43.052
457.64	43.095
457.84	43.146
458.04	43.196
458.25	43.237
458.45	43.313
458.65	43.316
458.85	43.329
459.06	43.309
459.26	43.304
459.46	43.305
459.66	43.279
459.87	43.280
460.07	43.279
460.27	43.274
460.47	43.276
460.68	43.263
460.88	43.288
461.08	43.291
461.28	43.357
461.49	43.416
461.69	43.474
461.89	43.562
462.09	43.633
462.30	43.657
462.50	43.708
462.70	43.745
462.90	43.747
463.11	43.786
463.31	43.840
463.51	43.858
463.71	43.916
463.92	43.954
464.12	43.995
464.32	44.015
464.52	44.068
464.72	44.064
464.93	44.092
465.13	44.146
465.33	44.186
465.53	44.191
465.74	44.197
465.94	44.173
466.14	44.171
466.34	44.174
466.54	44.157
466.75	44.124
466.95	44.137
467.15	44.124
467.35	44.118
467.56	44.126
467.76	44.163
467.96	44.219
468.16	44.273
468.36	44.306
468.57	44.358
468.77	44.404
468.97	44.455
469.17	44.494
469.37	44.555
469.58	44.594
469.78	44.613
469.98	44.649
470.18	44.674
470.38	44.703
470.59	44.756
470.79	44.787
470.99	44.835
471.19	44.893
471.39	44.948
471.60	45.005
471.80	45.051
472.00	45.097
472.20	45.100
472.40	45.077
472.61	45.079
472.81	45.083
473.01	45.063
473.21	45.077
473.41	45.086
473.61	45.087
473.82	45.097
474.02	45.094
474.22	45.095
474.42	45.134
474.62	45.223
474.82	45.290
475.03	45.386
475.23	45.443
475.43	45.480
475.63	45.526
475.83	45.563
476.03	45.571
476.24	45.614
476.44	45.674
476.64	45.719
476.84	45.717
477.04	45.721
477.24	45.671
477.45	45.690
477.65	45.695
477.85	45.732
478.05	45.751
478.25	45.805
478.45	45.822
478.65	45.837
478.86	45.867
479.06	45.895
479.26	45.930
479.46	45.995
479.66	46.027
479.86	46.076
480.06	46.103
480.27	46.140
480.47	46.156
480.67	46.195
480.87	46.222
481.07	46.241
481.27	46.311
481.47	46.357
481.68	46.419
481.88	46.539
482.08	46.724
482.28	46.945
482.48	47.147
482.68	47.346
482.88	47.669
483.08	48.285
483.29	48.573
483.49	48.335
483.69	48.096
483.89	47.966
484.09	47.870
484.29	47.770
484.49	47.680
484.69	47.605
484.89	47.515
485.10	47.305
485.30	46.726
485.50	46.295
485.70	46.406
485.90	46.663
486.10	46.848
486.30	46.997
486.50	47.138
486.70	47.227
486.90	47.283
487.11	47.317
487.31	47.326
487.51	47.287
487.71	47.226
487.91	47.178
488.11	47.128
488.31	47.082
488.51	47.054
488.71	47.026
488.91	47.014
489.11	47.023
489.32	47.052
489.52	47.078
489.72	47.188
489.92	47.352
490.12	47.547
490.32	47.721
490.52	47.816
490.72	47.830
490.92	47.810
491.12	47.754
491.32	47.681
491.52	47.613
491.72	47.588
491.92	47.534
492.13	47.460
492.33	47.373
492.53	47.298
492.73	47.257
492.93	47.238
493.13	47.256
493.33	47.299
493.53	47.386
493.73	47.463
493.93	47.507
494.13	47.584
494.33	47.659
494.53	47.716
494.73	47.752
494.93	47.809
495.13	47.889
495.33	47.934
495.53	48.001
495.73	48.057
495.94	48.094
496.14	48.117
496.34	48.157
496.54	48.174
496.74	48.216
496.94	48.256
497.14	48.267
497.34	48.262
497.54	48.252
497.74	48.245
497.94	48.232
498.14	48.234
498.34	48.261
498.54	48.251
498.74	48.253
498.94	48.266
499.14	48.261
499.34	48.262
499.54	48.280
499.74	48.331
499.94	48.354
500.14	48.381
500.34	48.423
500.54	48.456
500.74	48.485
500.94	48.539
501.14	48.553
501.34	48.573
501.54	48.613
501.74	48.648
501.94	48.658
502.14	48.687
502.34	48.752
502.54	48.782
502.74	48.766
502.94	48.775
503.14	48.772
503.34	48.813
503.54	48.863
503.74	48.870
503.94	48.884
504.14	48.907
504.34	48.944
504.54	48.952
504.74	48.949
504.94	48.984
505.14	49.020
505.34	49.038
505.54	49.082
505.74	49.094
505.94	49.117
506.14	49.129
506.34	49.150
506.54	49.155
506.74	49.164
506.94	49.193
507.14	49.206
507.34	49.221
507.54	49.236
507.74	49.209
507.94	49.220
508.14	49.233
508.34	49.241
508.54	49.240
508.74	49.255
508.94	49.268
509.13	49.273
509.33	49.316
509.53	49.361
509.73	49.383
509.93	49.433
510.13	49.455
510.33	49.493
510.53	49.528
510.73	49.575
510.93	49.607
511.13	49.635
511.33	49.676
511.53	49.662
511.73	49.653
511.93	49.667
512.13	49.658
512.33	49.664
512.53	49.652
512.73	49.647
512.92	49.659
513.12	49.653
513.32	49.662
513.52	49.685
513.72	49.707
513.92	49.719
514.12	49.739
514.32	49.778
514.52	49.802
514.72	49.834
514.92	49.848
515.12	49.859
515.32	49.873
515.52	49.909
515.71	49.924
515.91	49.972
516.11	50.001
516.31	50.061
516.51	50.063
516.71	50.097
516.91	50.164
517.11	50.237
517.31	50.270
517.51	50.291
517.71	50.299
517.90	50.287
518.10	50.250
518.30	50.242
518.50	50.195
518.70	50.206
518.90	50.193
519.10	50.160
519.30	50.139
519.50	50.144
519.69	50.153
519.89	50.145
520.09	50.174
520.29	50.238
520.49	50.283
520.69	50.341
520.89	50.352
521.09	50.382
521.29	50.412
521.48	50.418
521.68	50.413
521.88	50.444
522.08	50.469
522.28	50.486
522.48	50.479
522.68	50.483
522.88	50.515
523.07	50.558
523.27	50.599
523.47	50.644
523.67	50.705
523.87	50.769
524.07	50.823
524.27	50.868
524.47	50.902
524.66	50.948
524.86	50.952
525.06	50.923
525.26	50.928
525.46	50.916
525.66	50.907
525.85	50.892
526.05	50.872
526.25	50.895
526.45	50.945
526.65	51.028
526.85	51.162
527.05	51.387
527.24	51.615
527.44	51.746
527.64	51.860
527.84	51.923
528.04	51.908
528.24	51.845
528.43	51.757
528.63	51.666
528.83	51.580
529.03	51.475
529.23	51.360
529.43	51.234
529.62	51.124
529.82	51.012
530.02	50.877
530.22	50.812
530.42	50.808
530.62	50.842
530.81	50.903
531.01	50.972
531.21	51.075
531.41	51.149
531.61	51.287
531.80	51.425
532.00	51.509
532.20	51.603
532.40	51.636
532.60	51.634
532.79	51.581
532.99	51.521
533.19	51.499
533.39	51.451
533.59	51.408
533.78	51.335
533.98	51.272
534.18	51.224
534.38	51.176
534.58	51.163
534.77	51.200
534.97	51.299
535.17	51.447
535.37	51.539
535.57	51.623
535.76	51.683
535.96	51.712
536.16	51.689
536.36	51.670
536.56	51.670
536.75	51.660
536.95	51.613
537.15	51.564
537.35	51.509
537.54	51.459
537.74	51.427
537.94	51.446
538.14	51.477
538.34	51.528
538.53	51.613
538.73	51.652
538.93	51.716
539.13	51.793
539.32	51.888
539.52	52.005
539.72	52.165
539.92	52.281
540.11	52.345
540.31	52.362
540.51	52.366
540.71	52.286
540.90	52.204
541.10	52.122
541.30	52.062
541.50	52.026
541.69	51.975
541.89	51.906
542.09	51.856
542.29	51.798
542.48	51.753
542.68	51.720
542.88	51.731
543.08	51.777
543.27	51.838
543.47	51.897
543.67	51.926
543.87	51.956
544.06	51.955
544.26	51.952
544.46	51.980
544.65	52.028
544.85	52.072
545.05	52.112
545.25	52.160
545.44	52.181
545.64	52.208
545.84	52.215
546.04	52.209
546.23	52.195
546.43	52.179
546.63	52.135
546.82	52.075
547.02	52.051
547.22	52.036
547.42	52.001
547.61	52.000
547.81	52.001
548.01	51.977
548.20	51.985
548.40	52.052
548.60	52.085
548.79	52.144
548.99	52.224
549.19	52.244
549.39	52.253
549.58	52.311
549.78	52.315
549.98	52.316
550.17	52.362
550.37	52.367
550.57	52.343
550.76	52.362
550.96	52.387
551.16	52.399
551.35	52.406
551.55	52.449
551.75	52.451
551.94	52.464
552.14	52.449
552.34	52.421
552.53	52.385
552.73	52.398
552.93	52.409
553.13	52.381
553.32	52.355
553.52	52.361
553.72	52.354
553.91	52.360
554.11	52.352
554.31	52.384
554.50	52.404
554.70	52.465
554.89	52.469
555.09	52.471
555.29	52.487
555.48	52.530
555.68	52.554
555.88	52.549
556.07	52.548
556.27	52.581
556.47	52.563
556.66	52.593
556.86	52.609
557.06	52.621
557.25	52.634
557.45	52.664
557.65	52.638
557.84	52.645
558.04	52.655
558.23	52.678
558.43	52.668
558.63	52.692
558.82	52.676
559.02	52.659
559.22	52.689
559.41	52.679
559.61	52.674
559.81	52.709
560.00	52.737
560.20	52.771
560.39	52.756
560.59	52.773
560.79	52.761
560.98	52.794
561.18	52.820
561.37	52.809
561.57	52.845
561.77	52.876
561.96	52.863
562.16	52.843
562.36	52.818
562.55	52.850
562.75	52.891
562.94	52.944
563.14	52.953
563.34	52.981
563.53	53.005
563.73	53.026
563.92	53.017
564.12	53.080
564.32	53.100
564.51	53.144
564.71	53.177
564.90	53.167
565.10	53.160
565.29	53.185
565.49	53.186
565.69	53.175
565.88	53.135
566.08	53.155
566.27	53.122
566.47	53.119
566.67	53.102
566.86	53.091
567.06	53.076
567.25	53.075
567.45	53.074
567.64	53.078
567.84	53.110
568.04	53.138
568.23	53.148
568.43	53.186
568.62	53.205
568.82	53.217
569.01	53.242
569.21	53.271
569.41	53.290
569.60	53.293
569.80	53.319
569.99	53.301
570.19	53.361
570.38	53.379
570.58	53.401
570.77	53.423
570.97	53.455
571.17	53.436
571.36	53.436
571.56	53.440
571.75	53.445
571.95	53.417
572.14	53.442
572.34	53.435
572.53	53.461
572.73	53.467
572.92	53.461
573.12	53.462
573.31	53.467
573.51	53.477
573.70	53.498
573.90	53.507
574.10	53.543
574.29	53.558
574.49	53.550
574.68	53.515
574.88	53.495
575.07	53.513
575.27	53.508
575.46	53.510
575.66	53.511
575.85	53.503
576.05	53.506
576.24	53.499
576.44	53.484
576.63	53.489
576.83	53.494
577.02	53.503
577.22	53.453
577.41	53.442
577.61	53.452
577.80	53.452
578.00	53.455
578.19	53.452
578.39	53.440
578.58	53.445
578.78	53.447
578.97	53.449
579.17	53.433
579.36	53.451
579.56	53.486
579.75	53.501
579.95	53.516
580.14	53.531
580.34	53.555
580.53	53.580
580.73	53.585
580.92	53.612
581.12	53.624
581.31	53.650
581.51	53.692
581.70	53.694
581.89	53.695
582.09	53.682
582.28	53.700
582.48	53.693
582.67	53.725
582.87	53.722
583.06	53.709
583.26	53.705
583.45	53.705
583.65	53.707
583.84	53.719
584.04	53.709
584.23	53.740
584.43	53.707
584.62	53.733
584.81	53.684
585.01	53.712
585.20	53.707
585.40	53.733
585.59	53.751
585.79	53.801
585.98	53.792
586.18	53.809
586.37	53.803
586.56	53.839
586.76	53.811
586.95	53.837
587.15	53.838
587.34	53.852
587.54	53.884
587.73	53.881
587.92	53.836
588.12	53.862
588.31	53.916
588.51	53.956
588.70	53.972
588.90	53.988
589.09	54.005
589.28	54.007
589.48	53.991
589.67	53.967
589.87	53.981
590.06	53.987
590.25	53.986
590.45	53.957
590.64	53.909
590.84	53.887
591.03	53.920
591.23	53.928
591.42	53.926
591.61	53.957
591.81	53.956
592.00	53.976
592.20	54.005
592.39	54.032
592.58	54.046
592.78	54.091
592.97	54.115
593.17	54.083
593.36	54.074
593.55	54.053
593.75	54.074
593.94	54.067
594.13	54.060
594.33	54.084
594.52	54.059
594.72	54.084
594.91	54.114
595.10	54.115
595.30	54.181
595.49	54.259
595.68	54.377
595.88	54.394
596.07	54.414
596.27	54.410
596.46	54.344
596.65	54.338
596.85	54.298
597.04	54.260
597.23	54.245
597.43	54.205
597.62	54.165
597.81	54.111
598.01	54.103
598.20	54.104
598.40	54.105
598.59	54.147
598.78	54.154
598.98	54.171
599.17	54.205
599.36	54.239
599.56	54.279
599.75	54.278
599.94	54.287
600.14	54.280
600.33	54.292
600.52	54.308
600.72	54.326
600.91	54.337
601.10	54.362
601.30	54.397
601.49	54.420
601.68	54.437
601.88	54.434
602.07	54.456
602.26	54.487
602.46	54.521
602.65	54.544
602.84	54.546
603.04	54.612
603.23	54.636
603.42	54.654
603.62	54.648
603.81	54.610
604.00	54.606
604.20	54.559
604.39	54.520
604.58	54.504
604.77	54.466
604.97	54.452
605.16	54.397
605.35	54.379
605.55	54.346
605.74	54.329
605.93	54.341
606.13	54.337
606.32	54.335
606.51	54.384
606.70	54.390
606.90	54.437
607.09	54.462
607.28	54.483
607.48	54.524
607.67	54.536
607.86	54.586
608.05	54.652
608.25	54.691
608.44	54.747
608.63	54.712
608.83	54.704
609.02	54.664
609.21	54.668
609.40	54.637
609.60	54.617
609.79	54.582
609.98	54.551
610.17	54.498
610.37	54.466
610.56	54.433
610.75	54.401
610.95	54.385
611.14	54.413
611.33	54.401
611.52	54.422
611.72	54.410
611.91	54.435
612.10	54.426
612.29	54.447
612.49	54.438
612.68	54.452
612.87	54.532
613.06	54.562
613.26	54.591
613.45	54.583
613.64	54.588
613.83	54.573
614.03	54.560
614.22	54.553
614.41	54.548
614.60	54.581
614.79	54.602
614.99	54.580
615.18	54.558
615.37	54.550
615.56	54.563
615.76	54.586
615.95	54.621
616.14	54.650
616.33	54.715
616.53	54.740
616.72	54.766
616.91	54.778
617.10	54.764
617.29	54.750
617.49	54.758
617.68	54.767
617.87	54.761
618.06	54.761
618.25	54.746
618.45	54.715
618.64	54.679
618.83	54.677
619.02	54.668
619.21	54.731
619.41	54.783
619.60	54.789
619.79	54.802
619.98	54.818
620.17	54.802
620.37	54.802
620.56	54.817
620.75	54.821
620.94	54.794
621.13	54.767
621.33	54.730
621.52	54.728
621.71	54.723
621.90	54.747
622.09	54.728
622.28	54.753
622.48	54.806
622.67	54.811
622.86	54.825
623.05	54.861
623.24	54.872
623.44	54.861
623.63	54.834
623.82	54.818
624.01	54.814
624.20	54.810
624.39	54.833
624.59	54.820
624.78	54.848
624.97	54.897
625.16	54.907
625.35	54.984
625.54	55.001
625.73	55.057
625.93	55.087
626.12	55.079
626.31	55.097
626.50	55.065
626.69	55.057
626.88	55.022
627.07	55.006
627.27	54.971
627.46	54.936
627.65	54.932
627.84	54.922
628.03	54.922
628.22	54.937
628.41	54.936
628.61	54.964
628.80	54.967
628.99	54.961
629.18	54.925
629.37	54.970
629.56	54.967
629.75	54.979
629.94	54.949
630.14	54.915
630.33	54.912
630.52	54.919
630.71	54.900
630.90	54.909
631.09	54.955
631.28	54.958
631.47	54.901
631.66	54.903
631.86	54.913
632.05	54.917
632.24	54.971
632.43	54.969
632.62	54.983
632.81	55.036
633.00	55.083
633.19	55.056
633.38	55.094
633.57	55.119
633.77	55.112
633.96	55.129
634.15	55.113
634.34	55.110
634.53	55.098
634.72	55.053
634.91	55.014
635.10	54.955
635.29	54.970
635.48	54.961
635.67	54.968
635.86	54.996
636.05	54.987
636.25	55.019
636.44	55.014
636.63	55.029
636.82	55.089
637.01	55.083
637.20	55.104
637.39	55.089
637.58	55.121
637.77	55.151
637.96	55.157
638.15	55.151
638.34	55.194
638.53	55.174
638.72	55.176
638.91	55.204
639.10	55.243
639.30	55.228
639.49	55.269
639.68	55.254
639.87	55.205
640.06	55.185
640.25	55.223
640.44	55.170
640.63	55.162
640.82	55.161
641.01	55.148
641.20	55.138
641.39	55.146
641.58	55.163
641.77	55.157
641.96	55.238
642.15	55.258
642.34	55.237
642.53	55.248
642.72	55.281
642.91	55.276
643.10	55.280
643.29	55.285
643.48	55.275
643.67	55.213
643.86	55.250
644.05	55.228
644.24	55.244
644.43	55.238
644.62	55.238
644.81	55.267
645.00	55.300
645.19	55.355
645.38	55.383
645.57	55.387
645.76	55.384
645.95	55.382
646.14	55.391
646.33	55.398
646.52	55.417
646.71	55.444
646.90	55.414
647.09	55.462
647.28	55.397
647.47	55.370
647.66	55.391
647.85	55.436
648.04	55.436
648.23	55.437
648.42	55.418
648.61	55.393
648.80	55.351
648.99	55.361
649.18	55.317
649.37	55.300
649.56	55.273
649.75	55.280
649.94	55.253
650.13	55.234
650.32	55.210
650.51	55.199
650.70	55.219
650.89	55.252
651.08	55.242
651.27	55.242
651.46	55.272
651.65	55.319
651.83	55.346
652.02	55.379
652.21	55.388
652.40	55.409
652.59	55.451
652.78	55.445
652.97	55.442
653.16	55.483
653.35	55.483
653.54	55.487
653.73	55.469
653.92	55.454
654.11	55.421
654.30	55.444
654.49	55.460
654.68	55.416
654.86	55.437
655.05	55.448
655.24	55.443
655.43	55.402
655.62	55.416
655.81	55.438
656.00	55.422
656.19	55.453
656.38	55.508
656.57	55.555
656.76	55.596
656.95	55.613
657.13	55.634
657.32	55.663
657.51	55.758
657.70	55.800
657.89	55.841
658.08	55.932
658.27	55.953
658.46	55.888
658.65	55.897
658.84	55.885
659.02	55.835
659.21	55.842
659.40	55.826
659.59	55.796
659.78	55.734
659.97	55.677
660.16	55.631
660.35	55.616
660.54	55.651
660.72	55.599
660.91	55.586
661.10	55.620
661.29	55.632
661.48	55.597
661.67	55.614
661.86	55.653
662.05	55.704
662.23	55.682
662.42	55.693
662.61	55.655
662.80	55.680
662.99	55.675
663.18	55.729
663.37	55.717
663.56	55.767
663.74	55.742
663.93	55.739
664.12	55.701
664.31	55.682
664.50	55.679
664.69	55.683
664.87	55.681
665.06	55.708
665.25	55.632
665.44	55.626
665.63	55.570
665.82	55.569
666.01	55.580
666.19	55.621
666.38	55.642
666.57	55.634
666.76	55.634
666.95	55.608
667.14	55.604
667.32	55.645
667.51	55.660
667.70	55.713
667.89	55.726
668.08	55.727
668.26	55.703
668.45	55.709
668.64	55.715
668.83	55.740
669.02	55.730
669.21	55.729
669.39	55.705
669.58	55.691
669.77	55.686
669.96	55.702
670.15	55.706
670.33	55.720
670.52	55.723
670.71	55.716
670.90	55.686
671.09	55.709
671.27	55.723
671.46	55.710
671.65	55.716
671.84	55.696
672.03	55.673
672.21	55.703
672.40	55.690
672.59	55.667
672.78	55.730
672.96	55.764
673.15	55.781
673.34	55.769
673.53	55.775
673.72	55.757
673.90	55.750
674.09	55.730
674.28	55.732
674.47	55.758
674.65	55.795
674.84	55.711
675.03	55.710
675.22	55.745
675.41	55.759
675.59	55.813
675.78	55.838
675.97	55.869
676.16	55.931
676.34	55.935
676.53	55.926
676.72	55.937
676.91	55.970
677.09	55.951
677.28	55.937
677.47	55.965
677.66	55.948
677.84	55.943
678.03	55.972
678.22	55.971
678.41	55.989
678.59	56.007
678.78	56.011
678.97	56.084
679.15	56.137
679.34	56.117
679.53	56.100
679.72	56.123
679.90	56.167
680.09	56.195
680.28	56.144
680.47	56.095
680.65	56.069
680.84	56.080
681.03	56.044
681.21	56.027
681.40	55.992
681.59	55.972
681.78	55.905
681.96	55.830
682.15	55.765
682.34	55.796
682.52	55.767
682.71	55.734
682.90	55.665
683.08	55.674
683.27	55.668
683.46	55.702
683.65	55.740
683.83	55.780
684.02	55.789
684.21	55.811
684.39	55.813
684.58	55.869
684.77	55.947
684.95	55.959
685.14	55.912
685.33	55.923
685.51	55.932
685.70	55.890
685.89	55.883
686.07	55.933
686.26	55.907
686.45	55.902
686.63	55.826
686.82	55.808
687.01	55.840
687.20	55.873
687.38	55.821
687.57	55.773
687.75	55.787
687.94	55.799
688.13	55.787
688.31	55.802
688.50	55.822
688.69	55.864
688.87	55.861
689.06	55.867
689.25	55.863
689.43	55.881
689.62	55.935
689.81	55.944
689.99	55.991
690.18	55.971
690.37	55.983
690.55	55.963
690.74	56.019
690.93	56.035
691.11	56.039
691.30	56.030
691.48	56.048
691.67	56.075
691.86	56.077
692.04	56.068
692.23	56.089
692.42	56.093
692.60	56.127
692.79	56.082
692.97	56.098
693.16	56.111
693.35	56.112
693.53	56.142
693.72	56.090
693.90	56.129
694.09	56.109
694.28	56.155
694.46	56.200
694.65	56.182
694.83	56.224
695.02	56.240
695.21	56.260
695.39	56.264
695.58	56.298
695.76	56.391
695.95	56.369
696.14	56.419
696.32	56.405
696.51	56.372
696.69	56.419
696.88	56.481
697.07	56.532
697.25	56.588
697.44	56.676
697.62	56.702
697.81	56.691
697.99	56.710
698.18	56.674
698.37	56.652
698.55	56.615
698.74	56.591
698.92	56.525
699.11	56.487
699.29	56.436
699.48	56.367
699.67	56.334
699.85	56.303
700.04	56.294
700.22	56.295
700.41	56.316
700.59	56.331
700.78	56.320
700.96	56.338
701.15	56.314
701.34	56.325
701.52	56.372
701.71	56.366
701.89	56.359
702.08	56.354
702.26	56.378
702.45	56.352
702.63	56.379
702.82	56.411
703.00	56.441
703.19	56.438
703.38	56.448
703.56	56.411
703.75	56.432
703.93	56.444
704.12	56.454
704.30	56.404
704.49	56.408
704.67	56.435
704.86	56.416
705.04	56.376
705.23	56.382
705.41	56.420
705.60	56.465
705.78	56.449
705.97	56.425
706.15	56.431
706.34	56.462
706.52	56.428
706.71	56.396
706.89	56.377
707.08	56.343
707.26	56.321
707.45	56.253
707.63	56.226
707.82	56.176
708.00	56.184
708.19	56.156
708.37	56.140
708.56	56.165
708.74	56.165
708.93	56.180
709.11	56.210
709.30	56.238
709.48	56.244
709.67	56.279
709.85	56.268
710.04	56.296
710.22	56.317
710.41	56.271
710.59	56.346
710.77	56.308
710.96	56.306
711.14	56.289
711.33	56.292
711.51	56.258
711.70	56.173
711.88	56.202
712.07	56.149
712.25	56.113
712.44	56.146
712.62	56.073
712.80	56.089
712.99	56.056
713.17	56.062
713.36	55.999
713.54	56.046
713.73	56.094
713.91	56.155
714.10	56.182
714.28	56.240
714.46	56.282
714.65	56.408
714.83	56.491
715.02	56.554
715.20	56.559
715.39	56.599
715.57	56.583
715.75	56.598
715.94	56.549
716.12	56.564
716.31	56.542
716.49	56.600
716.68	56.471
716.86	56.427
717.04	56.409
717.23	56.472
717.41	56.576
717.60	56.643
717.78	56.710
717.96	56.662
718.15	56.651
718.33	56.635
718.52	56.556
718.70	56.613
718.88	56.612
719.07	56.655
719.25	56.565
719.44	56.445
719.62	56.414
719.80	56.275
719.99	56.344
720.17	56.370
720.36	56.378
720.54	56.398
720.72	56.421
720.91	56.418
721.09	56.389
721.27	56.466
721.46	56.521
721.64	56.506
721.83	56.544
722.01	56.512
722.19	56.514
722.38	56.474
722.56	56.469
722.74	56.466
722.93	56.505
723.11	56.459
723.30	56.426
723.48	56.463
723.66	56.489
723.85	56.563
724.03	56.623
724.21	56.661
724.40	56.667
724.58	56.623
724.76	56.586
724.95	56.554
725.13	56.636
725.31	56.648
725.50	56.593
725.68	56.546
725.86	56.532
726.05	56.522
726.23	56.502
726.41	56.573
726.60	56.555
726.78	56.551
726.96	56.569
727.15	56.549
727.33	56.530
727.51	56.568
727.70	56.610
727.88	56.576
728.06	56.510
728.25	56.512
728.43	56.542
728.61	56.606
728.80	56.629
728.98	56.618
729.16	56.599
729.34	56.616
729.53	56.577
729.71	56.531
729.89	56.555
730.08	56.586
730.26	56.574
730.44	56.518
730.63	56.512
730.81	56.507
730.99	56.544
731.17	56.558
731.36	56.499
731.54	56.476
731.72	56.523
731.91	56.565
732.09	56.650
732.27	56.621
732.45	56.631
732.64	56.653
732.82	56.625
733.00	56.545
733.19	56.518
733.37	56.602
733.55	56.649
733.73	56.658
733.92	56.648
734.10	56.578
734.28	56.559
734.46	56.545
734.65	56.521
734.83	56.507
735.01	56.579
735.19	56.602
735.38	56.609
735.56	56.595
735.74	56.612
735.92	56.561
736.11	56.595
736.29	56.664
736.47	56.645
736.65	56.672
736.84	56.734
737.02	56.705
737.20	56.731
737.38	56.743
737.57	56.764
737.75	56.733
737.93	56.750
738.11	56.701
738.30	56.707
738.48	56.726
738.66	56.676
738.84	56.690
739.02	56.619
739.21	56.566
739.39	56.565
739.57	56.556
739.75	56.536
739.93	56.600
740.12	56.645
740.30	56.616
740.48	56.644
740.66	56.608
740.85	56.614
741.03	56.705
741.21	56.774
741.39	56.729
741.57	56.767
741.76	56.810
741.94	56.762
742.12	56.773
742.30	56.814
742.48	56.799
742.66	56.863
742.85	56.787
743.03	56.797
743.21	56.803
743.39	56.747
743.57	56.758
743.76	56.719
743.94	56.678
744.12	56.593
744.30	56.585
744.48	56.537
744.66	56.545
744.85	56.566
745.03	56.496
745.21	56.481
745.39	56.592
745.57	56.541
745.75	56.515
745.94	56.517
746.12	56.615
746.30	56.624
746.48	56.693
746.66	56.679
746.84	56.731
747.02	56.840
747.21	56.815
747.39	56.804
747.57	56.835
747.75	56.924
747.93	56.977
748.11	56.989
748.29	56.983
748.48	56.952
748.66	56.974
748.84	56.979
749.02	56.951
749.20	56.949
749.38	56.952
749.56	56.909
749.75	56.914
749.93	56.833
750.11	56.784
750.29	56.784
750.47	56.835
750.65	56.830
750.83	56.791
751.01	56.738
751.19	56.764
751.38	56.757
751.56	56.757
751.74	56.733
751.92	56.776
752.10	56.826
752.28	56.825
752.46	56.806
752.64	56.746
752.82	56.767
753.00	56.838
753.19	56.783
753.37	56.753
753.55	56.782
753.73	56.743
753.91	56.771
754.09	56.651
754.27	56.574
754.45	56.654
754.63	56.791
754.81	56.813
754.99	56.843
755.17	56.663
755.36	56.721
755.54	56.696
755.72	56.757
755.90	56.738
756.08	56.833
756.26	56.932
756.44	56.788
756.62	56.679
756.80	56.632
756.98	56.506
757.16	56.698
757.34	56.668
757.52	56.705
757.70	56.568
757.88	56.554
758.06	56.581
758.24	56.584
758.42	56.644
758.61	56.681
758.79	56.718
758.97	56.769
759.15	56.824
759.33	56.796
759.51	56.780
759.69	56.867
759.87	56.934
760.05	56.913
760.23	56.829
760.41	56.879
760.59	56.862
760.77	56.817
760.95	56.824
761.13	56.777
761.31	56.814
761.49	56.853
761.67	56.943
761.85	56.988
762.03	56.934
762.21	57.026
762.39	57.024
762.57	57.102
762.75	57.138
762.93	57.079
763.11	57.039
763.29	56.925
763.47	56.819
763.65	56.713
763.83	56.600
764.01	56.553
764.19	56.440
764.37	56.427
764.55	56.315
764.73	56.276
764.91	56.259
765.09	56.293
765.27	56.308
765.45	56.355
765.63	56.383
765.81	56.448
765.99	56.518
766.17	56.582
766.35	56.524
766.53	56.518
766.71	56.546
766.89	56.606
767.07	56.606
767.25	56.645
767.43	56.630
767.61	56.685
767.78	56.705
767.96	56.722
768.14	56.764
768.32	56.838
768.50	57.047
768.68	57.035
768.86	57.080
769.04	57.145
769.22	57.239
769.40	57.354
769.58	57.314
769.76	57.282
769.94	57.271
770.12	57.333
770.30	57.309
770.48	57.133
770.66	57.110
770.84	57.038
771.01	56.967
771.19	56.937
771.37	56.893
771.55	56.915
771.73	56.963
771.91	56.945
772.09	56.860
772.27	56.830
772.45	56.860
772.63	56.930
772.81	56.970
772.99	56.835
773.16	56.832
773.34	56.806
773.52	56.852
773.70	56.764
773.88	56.848
774.06	56.965
774.24	57.033
774.42	57.133
774.60	57.098
774.78	57.007
774.95	57.158
775.13	57.216
775.31	57.183
775.49	57.153
775.67	57.263
775.85	57.204
776.03	57.117
776.21	57.064
776.38	57.059
776.56	57.037
776.74	57.096
776.92	57.067
777.10	56.923
777.28	56.977
777.46	57.045
777.64	57.004
777.81	57.090
777.99	57.166
778.17	57.218
778.35	57.294
778.53	57.427
778.71	57.523
778.89	57.607
779.06	57.605
779.24	57.605
779.42	57.514
779.60	57.463
779.78	57.417
779.96	57.480
780.13	57.487
780.31	57.411
780.49	57.324
780.67	57.318
780.85	57.289
781.03	57.285
781.20	57.274
781.38	57.273
781.56	57.268
781.74	57.299
781.92	57.191
782.10	57.135
782.27	57.167
782.45	57.138
782.63	56.958
782.81	56.901
782.99	57.008
783.17	57.095
783.34	57.135
783.52	57.314
783.70	57.365
783.88	57.421
784.06	57.370
784.23	57.288
784.41	57.366
784.59	57.469
784.77	57.477
784.95	57.543
785.12	57.443
785.30	57.467
785.48	57.377
785.66	57.285
785.83	57.346
786.01	57.569
786.19	57.700
786.37	57.560
786.55	57.553
786.72	57.540
786.90	57.416
787.08	57.492
787.26	57.390
787.43	57.395
787.61	57.380
787.79	57.306
787.97	57.200
788.15	57.095
788.32	57.164
788.50	57.178
788.68	57.197
788.86	57.166
789.03	57.169
789.21	57.230
789.39	57.197
789.57	57.212
789.74	57.144
789.92	57.181
790.10	57.183
790.28	57.242
790.45	57.387
790.63	57.441
790.81	57.524
790.99	57.467
791.16	57.490
791.34	57.645
791.52	57.629
791.69	57.619
791.87	57.543
792.05	57.470
792.23	57.425
792.40	57.194
792.58	57.081
792.76	57.069
792.94	57.137
793.11	57.232
793.29	57.067
793.47	57.064
793.64	57.214
793.82	57.365
794.00	57.553
794.18	57.531
794.35	57.749
794.53	57.674
794.71	57.749
794.88	57.692
795.06	57.662
795.24	57.651
795.41	57.817
795.59	57.737
795.77	57.651
795.94	57.544
796.12	57.580
796.30	57.541
796.48	57.633
796.65	57.531
796.83	57.628
797.01	57.525
797.18	57.554
797.36	57.369
797.54	57.421
797.71	57.384
797.89	57.423
798.07	57.354
798.24	57.327
798.42	57.312
798.60	57.367
798.77	57.328
798.95	57.299
799.13	57.231
799.30	57.253
799.48	57.245
799.66	57.310
799.83	57.378
800.01	57.457
800.18	57.491
800.36	57.581
800.54	57.597
800.71	57.444
800.89	57.504
801.07	57.556
801.24	57.639
801.42	57.776
801.60	57.782
801.77	57.690
801.95	57.684
802.12	57.634
802.30	57.650
802.48	57.559
802.65	57.745
802.83	57.784
803.01	57.895
803.18	57.808
803.36	57.759
803.53	57.795
803.71	57.823
803.89	57.812
804.06	57.773
804.24	57.885
804.41	57.956
804.59	57.955
804.77	58.107
804.94	58.041
805.12	58.143
805.29	58.168
805.47	58.022
805.65	58.016
805.82	58.084
806.00	58.211
806.17	58.041
806.35	58.023
806.53	57.962
806.70	57.842
806.88	57.847
807.05	57.897
807.23	57.792
807.40	57.899
807.58	57.870
807.76	57.820
807.93	57.724
808.11	57.737
808.28	57.802
808.46	57.614
808.63	57.630
808.81	57.570
808.99	57.531
809.16	57.432
809.34	57.415
809.51	57.367
809.69	57.413
809.86	57.248
810.04	57.230
810.21	57.187
810.39	57.484
810.57	57.363
810.74	57.383
810.92	57.141
811.09	57.211
811.27	57.224
811.44	57.366
811.62	57.428
811.79	57.562
811.97	57.518
812.14	57.545
812.32	57.403
812.49	57.476
812.67	57.643
812.84	57.807
813.02	57.852
813.19	57.798
813.37	57.743
813.55	57.585
813.72	57.607
813.90	57.905
814.07	57.861
814.25	57.794
814.42	57.737
814.60	57.632
814.77	57.607
814.95	57.654
815.12	57.585
815.30	57.746
815.47	57.771
815.65	57.907
815.82	57.804
816.00	58.027
816.17	58.022
816.35	58.079
816.52	58.082
816.69	58.311
816.87	58.310
817.04	58.424
817.22	58.261
817.39	58.198
817.57	57.993
817.74	57.927
817.92	57.902
818.09	57.868
818.27	57.854
818.44	57.826
818.62	57.775
818.79	57.781
818.97	57.779
819.14	57.915
819.32	58.089
819.49	58.277
819.66	58.284
819.84	58.167
820.01	58.222
820.19	58.128
820.36	58.062
820.54	58.054
820.71	57.995
820.89	58.033
821.06	58.084
821.23	58.231
821.41	58.156
821.58	58.036
821.76	57.879
821.93	57.707
822.11	57.496
822.28	57.302
822.45	57.046
822.63	56.878
822.80	56.751
822.98	56.618
823.15	56.473
823.33	56.347
823.50	56.212
823.67	56.093
823.85	55.992
824.02	55.939
824.20	55.947
824.37	56.043
824.54	56.139
824.72	56.192
824.89	56.258
825.07	56.274
825.24	56.381
825.41	56.526
825.59	56.677
825.76	56.826
825.94	57.024
826.11	57.182
826.28	57.334
826.46	57.431
826.63	57.512
826.80	57.528
826.98	57.529
827.15	57.444
827.33	57.365
827.50	57.299
827.67	57.247
827.85	57.118
828.02	57.019
828.19	56.961
828.37	56.927
828.54	56.884
828.72	56.911
828.89	56.937
829.06	56.991
829.24	57.119
829.41	57.152
829.58	57.202
829.76	57.342
829.93	57.394
830.10	57.437
830.28	57.473
830.45	57.653
830.62	57.682
830.80	57.818
830.97	57.859
831.14	57.916
831.32	58.064
831.49	58.138
831.66	58.120
831.84	58.123
832.01	58.172
832.18	58.214
832.36	58.062
832.53	58.185
832.70	58.362
832.88	58.445
833.05	58.373
833.22	58.241
833.40	58.144
833.57	58.166
833.74	58.046
833.91	57.863
834.09	57.684
834.26	57.607
834.43	57.523
834.61	57.351
834.78	57.276
834.95	57.192
835.13	57.151
835.30	57.073
835.47	56.936
835.64	56.933
835.82	56.950
835.99	57.054
836.16	57.154
836.34	57.177
836.51	57.225
836.68	57.228
836.85	57.167
837.03	57.312
837.20	57.415
837.37	57.603
837.54	57.671
837.72	57.811
837.89	57.765
838.06	57.678
838.24	57.680
838.41	57.931
838.58	57.851
838.75	58.047
838.93	58.030
839.10	58.112
839.27	58.178
839.44	58.234
839.62	58.460
839.79	58.536
839.96	58.474
840.13	58.413
840.31	58.260
840.48	58.291
840.65	58.075
840.82	57.988
840.99	57.984
841.17	57.744
841.34	57.740
841.51	57.478
841.68	57.540
841.86	57.577
842.03	57.517
842.20	57.444
842.37	57.546
842.55	57.824
842.72	57.751
842.89	57.786
843.06	57.819
843.23	57.512
843.41	57.677
843.58	57.519
843.75	57.699
843.92	57.656
844.09	57.625
844.27	57.457
844.44	57.440
844.61	57.376
844.78	57.567
844.95	57.705
845.13	58.160
845.30	57.896
845.47	57.939
845.64	57.866
845.81	58.257
845.98	58.322
846.16	58.131
846.33	58.061
846.50	58.237
846.67	57.930
846.84	58.230
847.02	57.894
847.19	58.059
847.36	57.638
847.53	57.408
847.70	57.228
847.87	57.454
848.04	57.678
848.22	57.426
848.39	57.231
848.56	56.988
848.73	57.110
848.90	57.185
849.07	57.102
849.25	57.421
849.42	57.693
849.59	57.410
849.76	56.971
849.93	57.060
850.10	57.170
850.27	57.254
850.45	57.569
850.62	57.014
850.79	57.006
850.96	56.649
851.13	57.152
851.30	57.210
851.47	57.487
851.64	57.856
851.82	57.802
851.99	58.242
852.16	58.323
852.33	57.962
852.50	58.280
852.67	58.592
852.84	59.102
853.01	58.532
853.18	58.641
853.35	58.712
853.53	58.365
853.70	58.735
853.87	58.800
854.04	58.842
854.21	59.063
854.38	58.992
854.55	58.851
854.72	58.515
854.89	58.457
855.06	58.595
855.23	58.621
855.41	58.746
855.58	58.594
855.75	58.276
855.92	58.218
856.09	58.136
856.26	58.017
856.43	57.727
856.60	57.480
856.77	57.677
856.94	57.234
857.11	57.014
857.28	57.402
857.45	57.250
857.62	57.015
857.80	57.053
857.97	56.637
858.14	56.869
858.31	57.263
858.48	57.617
858.65	57.716
858.82	57.920
858.99	57.980
859.16	57.529
859.33	57.760
859.50	57.963
859.67	57.982
859.84	58.385
860.01	58.360
860.18	58.080
860.35	58.092
860.52	58.287
860.69	58.203
860.86	58.493
861.03	58.335
861.20	58.086
861.37	58.326
861.54	58.403
861.71	58.126
861.88	57.989
862.05	58.143
862.22	58.360
862.39	58.251
862.56	57.950
862.73	57.733
862.90	57.923
863.07	57.681
863.24	57.483
863.41	57.385
863.58	57.413
863.75	57.454
863.92	57.326
864.09	57.340
864.26	57.001
864.43	57.064
864.60	57.140
864.77	57.130
864.94	57.630
865.11	57.722
865.28	57.749
865.45	58.124
865.62	58.079
865.79	58.386
865.96	58.106
866.13	58.382
866.30	58.403
866.47	58.071
866.64	57.978
866.81	57.764
866.98	57.829
867.15	57.813
867.32	57.716
867.49	57.690
867.66	57.762
867.82	58.218
867.99	58.416
868.16	58.836
868.33	58.899
868.50	59.084
868.67	59.432
868.84	59.544
869.01	59.437
869.18	59.438
869.35	59.652
869.52	59.622
869.69	59.488
869.86	59.164
870.03	58.995
870.19	59.254
870.36	59.372
870.53	58.881
870.70	58.782
870.87	58.910
871.04	58.799
871.21	58.511
871.38	58.302
871.55	58.300
871.72	58.479
871.89	58.408
872.05	58.045
872.22	57.672
872.39	57.340
872.56	57.134
872.73	56.900
872.90	57.352
873.07	57.849
873.24	57.959
873.41	57.922
873.57	57.793
873.74	57.816
873.91	57.705
874.08	58.054
874.25	58.727
874.42	58.691
874.59	58.966
874.76	58.544
874.92	58.256
875.09	58.340
875.26	58.140
875.43	58.215
875.60	58.045
875.77	58.094
875.94	58.418
876.11	58.377
876.27	58.462
876.44	58.262
876.61	58.397
876.78	58.332
876.95	58.119
877.12	58.210
877.28	58.418
877.45	58.637
877.62	58.825
877.79	58.472
877.96	58.395
878.13	58.445
878.29	58.462
878.46	58.429
878.63	58.420
878.80	58.628
878.97	58.721
879.14	58.564
879.30	58.483
879.47	58.665
879.64	58.755
879.81	58.932
879.98	59.024
880.14	59.288
880.31	59.352
880.48	59.561
880.65	59.594
880.82	59.447
880.98	59.179
881.15	58.894
881.32	58.573
881.49	58.263
881.66	57.975
881.82	57.744
881.99	57.480
882.16	57.340
882.33	57.155
882.50	56.991
882.66	56.891
882.83	56.812
883.00	56.691
883.17	56.642
883.33	56.640
883.50	56.645
883.67	56.666
883.84	56.741
884.01	56.750
884.17	56.805
884.34	56.796
884.51	56.808
884.68	56.827
884.84	56.970
885.01	57.030
885.18	57.005
885.35	57.085
885.51	57.168
885.68	57.268
885.85	57.359
886.02	57.384
886.18	57.580
886.35	57.559
886.52	57.617
886.69	57.586
886.85	57.642
887.02	57.737
887.19	57.521
887.35	57.460
887.52	57.378
887.69	57.375
887.86	57.410
888.02	57.552
888.19	57.753
888.36	57.241
888.53	58.373
888.69	58.273
888.86	60.514
889.03	59.100
>>>>>End Spectral Data<<<<<
