OOIBase32 Version 2.0.6.5 Data File
++++++++++++++++++++++++++++++++++++
Date: 03-24-2011, 10:55:19
User: Valued Ocean Optics Customer
Spectrometer Serial Number: USB4C01507
Spectrometer Channel: Master
Integration Time (msec): 46
Spectra Averaged: 30
Boxcar Smoothing: 5
Correct for Electrical Dark: Enabled
Time Normalized: Disabled
Dual-beam Reference: Disabled
Reference Channel: Master
Temperature: Not acquired
Spectrometer Type: S4000
ADC Type: USB4000
Number of Pixels in File: 3648
Graph Title: 
>>>>>Begin Spectral Data<<<<<
179.17	1106.459
179.39	3046.635
179.60	-109.926
179.82	-104.219
180.03	361.571
180.24	-86.568
180.46	19.817
180.67	-239.990
180.89	-197.988
181.10	-274.369
181.31	82.985
181.53	-67.226
181.74	-17.965
181.96	-9.920
182.17	3.416
182.39	-53.265
182.60	107.929
182.81	11.750
183.03	40.494
183.24	-618.548
183.46	35.436
183.67	25.863
183.88	13.419
184.10	11.404
184.31	9.459
184.53	17.718
184.74	15.084
184.96	23.113
185.17	26.528
185.38	25.227
185.60	29.605
185.81	26.423
186.03	24.166
186.24	27.859
186.45	28.037
186.67	28.259
186.88	26.570
187.10	22.088
187.31	19.194
187.52	12.462
187.74	12.815
187.95	7.072
188.17	3.461
188.38	6.769
188.59	8.226
188.81	-2.646
189.02	0.979
189.24	2.387
189.45	11.114
189.66	9.768
189.88	5.032
190.09	6.143
190.30	4.188
190.52	7.549
190.73	3.256
190.95	-3.119
191.16	5.205
191.37	3.883
191.59	4.389
191.80	-3.038
192.02	-9.196
192.23	-1.551
192.44	-11.518
192.66	-8.015
192.87	-20.793
193.08	-22.848
193.30	-14.617
193.51	-8.469
193.73	-8.687
193.94	-1.741
194.15	-1.256
194.37	8.508
194.58	5.863
194.79	2.833
195.01	0.057
195.22	8.650
195.44	11.114
195.65	9.338
195.86	4.363
196.08	0.393
196.29	0.733
196.50	-1.628
196.72	-1.838
196.93	2.028
197.14	5.866
197.36	8.220
197.57	0.042
197.79	-1.891
198.00	-5.913
198.21	-5.446
198.43	1.619
198.64	-1.292
198.85	-2.007
199.07	-0.645
199.28	-0.619
199.49	-6.021
199.71	-5.402
199.92	0.763
200.13	-0.310
200.35	5.947
200.56	3.127
200.78	-2.642
200.99	-6.085
201.20	-2.034
201.42	-8.458
201.63	-10.729
201.84	-2.720
202.06	-3.642
202.27	-2.778
202.48	1.575
202.70	-7.027
202.91	-5.307
203.12	-4.370
203.34	-4.183
203.55	-6.782
203.76	-1.416
203.98	1.041
204.19	-0.978
204.40	1.464
204.62	1.991
204.83	-1.742
205.04	-2.437
205.26	-3.215
205.47	-1.683
205.68	-0.458
205.90	1.282
206.11	-0.221
206.32	-2.726
206.54	1.174
206.75	2.147
206.96	-2.185
207.18	1.774
207.39	8.597
207.60	17.397
207.82	16.202
208.03	16.673
208.24	18.632
208.45	18.386
208.67	12.188
208.88	10.332
209.09	7.954
209.31	8.660
209.52	7.221
209.73	4.811
209.95	0.248
210.16	2.838
210.37	2.384
210.59	2.903
210.80	2.276
211.01	8.119
211.23	9.063
211.44	8.690
211.65	8.232
211.86	9.973
212.08	5.455
212.29	5.337
212.50	3.507
212.72	0.018
212.93	-3.325
213.14	1.576
213.36	0.634
213.57	0.221
213.78	-0.952
213.99	2.889
214.21	4.485
214.42	12.823
214.63	10.803
214.85	10.748
215.06	13.205
215.27	17.343
215.49	13.137
215.70	14.129
215.91	12.479
216.12	12.722
216.34	13.532
216.55	11.962
216.76	8.708
216.98	8.069
217.19	7.004
217.40	9.568
217.61	8.243
217.83	8.909
218.04	7.430
218.25	7.519
218.47	7.510
218.68	5.731
218.89	6.938
219.10	6.168
219.32	5.442
219.53	7.348
219.74	8.417
219.95	7.522
220.17	6.833
220.38	8.111
220.59	7.829
220.81	6.678
221.02	7.670
221.23	7.206
221.44	6.634
221.66	8.191
221.87	7.321
222.08	5.862
222.29	5.688
222.51	5.879
222.72	5.401
222.93	5.639
223.14	7.259
223.36	5.994
223.57	5.208
223.78	5.325
223.99	4.399
224.21	4.793
224.42	5.002
224.63	3.681
224.84	2.832
225.06	2.720
225.27	3.023
225.48	2.858
225.69	3.012
225.91	3.140
226.12	3.146
226.33	4.442
226.54	4.246
226.76	4.294
226.97	4.765
227.18	4.830
227.39	4.746
227.61	4.861
227.82	4.609
228.03	4.777
228.24	4.773
228.46	4.937
228.67	4.818
228.88	4.741
229.09	4.613
229.31	4.547
229.52	4.721
229.73	4.876
229.94	4.682
230.16	4.898
230.37	4.607
230.58	4.423
230.79	4.390
231.00	4.508
231.22	4.612
231.43	4.571
231.64	4.669
231.85	4.321
232.07	4.079
232.28	4.248
232.49	4.087
232.70	4.141
232.91	4.712
233.13	4.716
233.34	4.525
233.55	4.782
233.76	4.875
233.98	5.050
234.19	5.192
234.40	5.306
234.61	5.326
234.82	5.530
235.04	5.208
235.25	5.121
235.46	4.976
235.67	4.650
235.88	4.565
236.10	4.605
236.31	4.340
236.52	4.337
236.73	4.220
236.94	4.038
237.16	3.750
237.37	4.233
237.58	3.852
237.79	3.872
238.01	3.844
238.22	3.786
238.43	3.765
238.64	4.067
238.85	3.945
239.06	3.831
239.28	3.464
239.49	3.506
239.70	3.468
239.91	3.501
240.12	3.631
240.34	3.736
240.55	3.826
240.76	3.858
240.97	3.663
241.18	3.741
241.40	3.646
241.61	3.839
241.82	3.937
242.03	4.060
242.24	3.994
242.45	3.888
242.67	3.922
242.88	3.885
243.09	3.735
243.30	3.682
243.51	3.777
243.73	3.904
243.94	3.809
244.15	3.688
244.36	3.519
244.57	3.879
244.78	3.880
245.00	3.869
245.21	3.794
245.42	3.913
245.63	4.001
245.84	3.964
246.05	3.980
246.27	4.071
246.48	4.067
246.69	4.092
246.90	4.080
247.11	4.025
247.32	4.029
247.54	4.048
247.75	4.005
247.96	3.987
248.17	3.979
248.38	4.045
248.59	3.945
248.81	3.953
249.02	3.857
249.23	3.607
249.44	3.670
249.65	3.550
249.86	3.305
250.07	3.495
250.29	3.399
250.50	3.266
250.71	3.083
250.92	3.125
251.13	3.190
251.34	3.323
251.55	3.376
251.77	3.462
251.98	3.513
252.19	3.641
252.40	3.529
252.61	3.589
252.82	3.525
253.03	3.517
253.25	3.471
253.46	3.300
253.67	3.146
253.88	3.141
254.09	3.001
254.30	2.991
254.51	3.086
254.73	3.103
254.94	3.172
255.15	3.269
255.36	3.199
255.57	3.207
255.78	3.172
255.99	3.181
256.20	3.287
256.42	3.216
256.63	3.095
256.84	2.902
257.05	2.857
257.26	2.639
257.47	2.523
257.68	2.608
257.89	2.630
258.10	2.837
258.32	2.924
258.53	2.938
258.74	2.970
258.95	3.036
259.16	3.076
259.37	3.119
259.58	3.128
259.79	3.255
260.00	3.216
260.22	3.195
260.43	3.182
260.64	3.110
260.85	3.153
261.06	3.155
261.27	3.043
261.48	2.982
261.69	2.916
261.90	2.953
262.12	2.797
262.33	2.930
262.54	3.023
262.75	3.027
262.96	2.911
263.17	2.906
263.38	2.905
263.59	2.991
263.80	3.142
264.01	3.193
264.22	3.128
264.44	2.998
264.65	2.842
264.86	2.827
265.07	2.738
265.28	2.832
265.49	2.719
265.70	2.669
265.91	2.687
266.12	2.565
266.33	2.524
266.54	2.570
266.75	2.678
266.97	2.774
267.18	2.781
267.39	2.781
267.60	2.746
267.81	2.698
268.02	2.676
268.23	2.763
268.44	2.783
268.65	2.748
268.86	2.831
269.07	2.845
269.28	2.741
269.49	2.799
269.70	2.759
269.92	2.783
270.13	2.802
270.34	2.889
270.55	2.783
270.76	2.782
270.97	2.794
271.18	2.779
271.39	2.690
271.60	2.748
271.81	2.724
272.02	2.785
272.23	2.796
272.44	2.857
272.65	2.843
272.86	2.865
273.07	2.773
273.28	2.862
273.49	2.839
273.71	2.863
273.92	2.847
274.13	2.686
274.34	2.525
274.55	2.485
274.76	2.387
274.97	2.402
275.18	2.344
275.39	2.487
275.60	2.384
275.81	2.477
276.02	2.393
276.23	2.418
276.44	2.526
276.65	2.675
276.86	2.768
277.07	2.779
277.28	2.780
277.49	2.866
277.70	2.802
277.91	2.924
278.12	2.777
278.33	2.763
278.54	2.844
278.75	2.713
278.96	2.523
279.17	2.565
279.39	2.563
279.60	2.500
279.81	2.455
280.02	2.472
280.23	2.421
280.44	2.422
280.65	2.443
280.86	2.291
281.07	2.427
281.28	2.626
281.49	2.510
281.70	2.548
281.91	2.584
282.12	2.620
282.33	2.633
282.54	2.633
282.75	2.694
282.96	2.791
283.17	2.874
283.38	2.830
283.59	2.754
283.80	2.760
284.01	2.662
284.22	2.674
284.43	2.635
284.64	2.639
284.85	2.601
285.06	2.586
285.27	2.552
285.48	2.555
285.69	2.571
285.90	2.620
286.11	2.629
286.32	2.689
286.53	2.626
286.74	2.666
286.95	2.622
287.16	2.645
287.37	2.593
287.58	2.581
287.79	2.532
288.00	2.547
288.21	2.501
288.42	2.498
288.63	2.547
288.84	2.571
289.05	2.599
289.26	2.661
289.47	2.603
289.68	2.600
289.89	2.571
290.10	2.533
290.31	2.440
290.51	2.407
290.72	2.434
290.93	2.460
291.14	2.451
291.35	2.360
291.56	2.300
291.77	2.298
291.98	2.313
292.19	2.387
292.40	2.430
292.61	2.458
292.82	2.504
293.03	2.565
293.24	2.495
293.45	2.584
293.66	2.633
293.87	2.694
294.08	2.657
294.29	2.710
294.50	2.650
294.71	2.637
294.92	2.694
295.13	2.634
295.34	2.491
295.55	2.538
295.76	2.431
295.96	2.394
296.17	2.386
296.38	2.508
296.59	2.485
296.80	2.466
297.01	2.485
297.22	2.502
297.43	2.551
297.64	2.581
297.85	2.524
298.06	2.537
298.27	2.568
298.48	2.555
298.69	2.490
298.90	2.477
299.11	2.526
299.32	2.461
299.53	2.423
299.73	2.399
299.94	2.419
300.15	2.385
300.36	2.409
300.57	2.384
300.78	2.384
300.99	2.405
301.20	2.333
301.41	2.299
301.62	2.372
301.83	2.369
302.04	2.378
302.25	2.319
302.45	2.292
302.66	2.301
302.87	2.267
303.08	2.251
303.29	2.196
303.50	2.299
303.71	2.303
303.92	2.261
304.13	2.209
304.34	2.202
304.55	2.296
304.76	2.380
304.96	2.364
305.17	2.391
305.38	2.374
305.59	2.386
305.80	2.361
306.01	2.374
306.22	2.341
306.43	2.386
306.64	2.350
306.85	2.311
307.06	2.299
307.26	2.286
307.47	2.215
307.68	2.270
307.89	2.224
308.10	2.178
308.31	2.203
308.52	2.301
308.73	2.304
308.94	2.298
309.14	2.311
309.35	2.317
309.56	2.326
309.77	2.409
309.98	2.422
310.19	2.429
310.40	2.434
310.61	2.386
310.82	2.324
311.02	2.350
311.23	2.341
311.44	2.287
311.65	2.234
311.86	2.208
312.07	2.160
312.28	2.092
312.49	2.082
312.69	2.060
312.90	2.076
313.11	2.125
313.32	2.098
313.53	2.141
313.74	2.118
313.95	2.083
314.16	2.075
314.36	2.105
314.57	2.183
314.78	2.180
314.99	2.255
315.20	2.270
315.41	2.218
315.62	2.136
315.82	2.090
316.03	2.127
316.24	2.232
316.45	2.296
316.66	2.303
316.87	2.309
317.08	2.310
317.28	2.290
317.49	2.248
317.70	2.291
317.91	2.327
318.12	2.332
318.33	2.370
318.54	2.354
318.74	2.300
318.95	2.315
319.16	2.301
319.37	2.303
319.58	2.248
319.79	2.199
319.99	2.154
320.20	2.118
320.41	2.150
320.62	2.102
320.83	2.024
321.04	1.996
321.24	1.934
321.45	1.945
321.66	1.949
321.87	2.001
322.08	2.058
322.29	2.022
322.49	2.085
322.70	2.046
322.91	2.097
323.12	2.172
323.33	2.216
323.54	2.211
323.74	2.156
323.95	2.182
324.16	2.202
324.37	2.190
324.58	2.260
324.79	2.197
324.99	2.185
325.20	2.177
325.41	2.185
325.62	2.200
325.83	2.191
326.03	2.167
326.24	2.132
326.45	2.104
326.66	2.045
326.87	2.045
327.07	2.090
327.28	2.090
327.49	2.093
327.70	2.081
327.91	2.082
328.11	2.070
328.32	2.089
328.53	2.156
328.74	2.167
328.95	2.210
329.15	2.207
329.36	2.240
329.57	2.261
329.78	2.268
329.99	2.257
330.19	2.215
330.40	2.242
330.61	2.281
330.82	2.168
331.03	2.101
331.23	2.134
331.44	2.088
331.65	2.063
331.86	2.080
332.07	2.012
332.27	2.019
332.48	2.035
332.69	2.065
332.90	2.028
333.10	2.082
333.31	2.111
333.52	2.044
333.73	2.047
333.94	2.009
334.14	1.986
334.35	1.999
334.56	1.979
334.77	1.943
334.97	1.889
335.18	1.863
335.39	1.859
335.60	1.872
335.80	1.864
336.01	1.871
336.22	1.864
336.43	1.901
336.64	1.937
336.84	1.959
337.05	1.961
337.26	1.953
337.47	2.000
337.67	2.029
337.88	2.009
338.09	2.055
338.30	2.059
338.50	2.090
338.71	2.033
338.92	2.020
339.13	2.010
339.33	2.014
339.54	2.027
339.75	2.025
339.96	1.991
340.16	1.985
340.37	2.006
340.58	1.996
340.79	1.984
340.99	2.016
341.20	1.950
341.41	1.920
341.62	1.963
341.82	1.976
342.03	1.866
342.24	1.875
342.44	1.883
342.65	1.869
342.86	1.857
343.07	1.859
343.27	1.870
343.48	1.880
343.69	1.878
343.90	1.905
344.10	1.856
344.31	1.917
344.52	1.951
344.72	1.941
344.93	1.939
345.14	1.971
345.35	1.981
345.55	1.983
345.76	2.019
345.97	2.053
346.18	1.998
346.38	2.055
346.59	2.045
346.80	2.039
347.00	2.044
347.21	2.054
347.42	2.079
347.62	2.073
347.83	2.009
348.04	1.989
348.25	1.923
348.45	1.931
348.66	1.911
348.87	1.962
349.07	1.929
349.28	1.945
349.49	1.901
349.70	1.869
349.90	1.838
350.11	1.886
350.32	1.888
350.52	1.920
350.73	1.908
350.94	1.908
351.14	1.877
351.35	1.883
351.56	1.848
351.76	1.904
351.97	1.906
352.18	1.949
352.39	1.925
352.59	1.973
352.80	1.966
353.01	1.998
353.21	1.990
353.42	2.005
353.63	1.958
353.83	1.968
354.04	1.933
354.25	1.937
354.45	1.911
354.66	1.922
354.87	1.875
355.07	1.882
355.28	1.848
355.49	1.851
355.69	1.827
355.90	1.876
356.11	1.903
356.31	1.908
356.52	1.893
356.73	1.906
356.93	1.902
357.14	1.938
357.35	1.947
357.55	1.987
357.76	1.974
357.97	1.985
358.17	2.011
358.38	1.988
358.59	1.992
358.79	2.009
359.00	1.953
359.21	1.931
359.41	1.891
359.62	1.883
359.83	1.826
360.03	1.834
360.24	1.847
360.44	1.820
360.65	1.810
360.86	1.826
361.06	1.829
361.27	1.877
361.48	1.887
361.68	1.929
361.89	1.931
362.10	1.944
362.30	1.956
362.51	1.940
362.72	1.944
362.92	1.952
363.13	1.904
363.33	1.856
363.54	1.866
363.75	1.869
363.95	1.839
364.16	1.836
364.37	1.868
364.57	1.863
364.78	1.880
364.98	1.850
365.19	1.841
365.40	1.867
365.60	1.887
365.81	1.907
366.02	1.910
366.22	1.898
366.43	1.919
366.63	1.898
366.84	1.899
367.05	1.898
367.25	1.894
367.46	1.868
367.66	1.888
367.87	1.923
368.08	1.880
368.28	1.897
368.49	1.896
368.69	1.839
368.90	1.856
369.11	1.862
369.31	1.847
369.52	1.886
369.72	1.914
369.93	1.883
370.14	1.871
370.34	1.878
370.55	1.879
370.75	1.885
370.96	1.899
371.17	1.910
371.37	1.887
371.58	1.909
371.78	1.882
371.99	1.901
372.20	1.918
372.40	1.897
372.61	1.896
372.81	1.881
373.02	1.885
373.23	1.893
373.43	1.869
373.64	1.899
373.84	1.891
374.05	1.929
374.25	1.907
374.46	1.885
374.67	1.880
374.87	1.907
375.08	1.900
375.28	1.892
375.49	1.900
375.69	1.900
375.90	1.863
376.11	1.855
376.31	1.830
376.52	1.834
376.72	1.838
376.93	1.834
377.13	1.810
377.34	1.821
377.55	1.844
377.75	1.873
377.96	1.832
378.16	1.865
378.37	1.889
378.57	1.912
378.78	1.922
378.98	1.926
379.19	1.956
379.40	1.946
379.60	1.924
379.81	1.918
380.01	1.879
380.22	1.920
380.42	1.891
380.63	1.877
380.83	1.847
381.04	1.841
381.24	1.845
381.45	1.824
381.66	1.836
381.86	1.839
382.07	1.829
382.27	1.849
382.48	1.828
382.68	1.823
382.89	1.804
383.09	1.820
383.30	1.790
383.50	1.796
383.71	1.782
383.91	1.775
384.12	1.797
384.32	1.785
384.53	1.779
384.73	1.798
384.94	1.794
385.15	1.811
385.35	1.803
385.56	1.829
385.76	1.809
385.97	1.822
386.17	1.825
386.38	1.838
386.58	1.847
386.79	1.876
386.99	1.863
387.20	1.879
387.40	1.854
387.61	1.874
387.81	1.861
388.02	1.872
388.22	1.852
388.43	1.863
388.63	1.831
388.84	1.856
389.04	1.832
389.25	1.849
389.45	1.839
389.66	1.864
389.86	1.843
390.07	1.873
390.27	1.868
390.48	1.884
390.68	1.861
390.89	1.889
391.09	1.893
391.30	1.891
391.50	1.881
391.71	1.885
391.91	1.881
392.12	1.922
392.32	1.905
392.53	1.923
392.73	1.939
392.94	1.962
393.14	1.937
393.35	1.931
393.55	1.926
393.75	1.938
393.96	1.938
394.16	1.925
394.37	1.895
394.57	1.906
394.78	1.900
394.98	1.887
395.19	1.867
395.39	1.873
395.60	1.842
395.80	1.830
396.01	1.817
396.21	1.831
396.42	1.824
396.62	1.820
396.83	1.786
397.03	1.785
397.23	1.776
397.44	1.803
397.64	1.815
397.85	1.840
398.05	1.852
398.26	1.859
398.46	1.836
398.67	1.862
398.87	1.851
399.08	1.877
399.28	1.867
399.48	1.873
399.69	1.847
399.89	1.849
400.10	1.844
400.30	1.851
400.51	1.847
400.71	1.891
400.92	1.887
401.12	1.890
401.32	1.860
401.53	1.866
401.73	1.863
401.94	1.878
402.14	1.856
402.35	1.873
402.55	1.868
402.75	1.878
402.96	1.867
403.16	1.877
403.37	1.879
403.57	1.913
403.78	1.912
403.98	1.923
404.18	1.904
404.39	1.903
404.59	1.879
404.80	1.886
405.00	1.859
405.21	1.879
405.41	1.850
405.61	1.854
405.82	1.845
406.02	1.844
406.23	1.841
406.43	1.861
406.63	1.878
406.84	1.899
407.04	1.896
407.25	1.911
407.45	1.885
407.65	1.896
407.86	1.888
408.06	1.867
408.27	1.868
408.47	1.882
408.67	1.865
408.88	1.866
409.08	1.848
409.29	1.838
409.49	1.845
409.69	1.837
409.90	1.844
410.10	1.860
410.31	1.874
410.51	1.887
410.71	1.857
410.92	1.843
411.12	1.835
411.33	1.846
411.53	1.842
411.73	1.841
411.94	1.857
412.14	1.846
412.34	1.838
412.55	1.851
412.75	1.840
412.96	1.864
413.16	1.905
413.36	1.899
413.57	1.895
413.77	1.915
413.97	1.919
414.18	1.921
414.38	1.926
414.59	1.944
414.79	1.921
414.99	1.921
415.20	1.914
415.40	1.919
415.60	1.926
415.81	1.909
416.01	1.910
416.21	1.892
416.42	1.891
416.62	1.913
416.83	1.892
417.03	1.914
417.23	1.906
417.44	1.910
417.64	1.883
417.84	1.889
418.05	1.907
418.25	1.909
418.45	1.918
418.66	1.915
418.86	1.886
419.06	1.906
419.27	1.899
419.47	1.907
419.67	1.905
419.88	1.925
420.08	1.906
420.28	1.899
420.49	1.898
420.69	1.901
420.89	1.899
421.10	1.917
421.30	1.900
421.50	1.898
421.71	1.897
421.91	1.895
422.11	1.889
422.32	1.905
422.52	1.899
422.72	1.913
422.93	1.925
423.13	1.932
423.33	1.923
423.54	1.921
423.74	1.913
423.94	1.913
424.15	1.905
424.35	1.906
424.55	1.901
424.76	1.909
424.96	1.895
425.16	1.887
425.36	1.879
425.57	1.875
425.77	1.885
425.97	1.896
426.18	1.895
426.38	1.896
426.58	1.902
426.79	1.909
426.99	1.911
427.19	1.908
427.39	1.909
427.60	1.903
427.80	1.919
428.00	1.940
428.21	1.956
428.41	1.957
428.61	1.986
428.82	1.973
429.02	1.971
429.22	1.978
429.42	1.989
429.63	1.983
429.83	1.994
430.03	1.980
430.24	1.962
430.44	1.949
430.64	1.963
430.84	1.953
431.05	1.952
431.25	1.961
431.45	1.937
431.65	1.926
431.86	1.931
432.06	1.947
432.26	1.953
432.47	1.948
432.67	1.948
432.87	1.938
433.07	1.939
433.28	1.954
433.48	1.967
433.68	1.992
433.88	1.997
434.09	1.996
434.29	1.981
434.49	1.976
434.69	1.964
434.90	1.979
435.10	1.979
435.30	1.990
435.51	1.990
435.71	1.960
435.91	1.947
436.11	1.941
436.32	1.925
436.52	1.940
436.72	1.957
436.92	1.971
437.13	1.947
437.33	1.952
437.53	1.932
437.73	1.912
437.93	1.912
438.14	1.914
438.34	1.915
438.54	1.940
438.74	1.926
438.95	1.919
439.15	1.923
439.35	1.931
439.55	1.925
439.76	1.947
439.96	1.959
440.16	1.972
440.36	1.980
440.56	1.986
440.77	1.965
440.97	1.965
441.17	1.965
441.37	1.966
441.58	1.968
441.78	1.998
441.98	1.992
442.18	1.998
442.38	1.986
442.59	1.982
442.79	1.978
442.99	2.004
443.19	2.015
443.40	2.021
443.60	2.018
443.80	2.014
444.00	1.988
444.20	1.984
444.41	1.966
444.61	1.989
444.81	1.994
445.01	1.994
445.21	1.977
445.42	1.980
445.62	1.979
445.82	1.979
446.02	1.978
446.22	1.984
446.43	1.986
446.63	1.989
446.83	1.981
447.03	1.980
447.23	1.982
447.44	1.996
447.64	1.999
447.84	1.998
448.04	2.000
448.24	2.005
448.44	1.994
448.65	1.998
448.85	2.008
449.05	2.012
449.25	2.005
449.45	2.017
449.65	2.021
449.86	2.022
450.06	2.032
450.26	2.045
450.46	2.048
450.66	2.061
450.87	2.066
451.07	2.074
451.27	2.070
451.47	2.079
451.67	2.088
451.87	2.090
452.08	2.088
452.28	2.081
452.48	2.072
452.68	2.071
452.88	2.067
453.08	2.057
453.28	2.064
453.49	2.069
453.69	2.073
453.89	2.061
454.09	2.056
454.29	2.046
454.49	2.060
454.70	2.074
454.90	2.067
455.10	2.068
455.30	2.054
455.50	2.056
455.70	2.053
455.90	2.037
456.11	2.032
456.31	2.027
456.51	2.024
456.71	2.002
456.91	2.001
457.11	2.032
457.31	2.032
457.51	2.046
457.72	2.030
457.92	2.020
458.12	2.028
458.32	2.041
458.52	2.042
458.72	2.062
458.92	2.062
459.12	2.065
459.33	2.047
459.53	2.055
459.73	2.073
459.93	2.084
460.13	2.098
460.33	2.103
460.53	2.092
460.73	2.085
460.93	2.077
461.14	2.089
461.34	2.088
461.54	2.100
461.74	2.104
461.94	2.086
462.14	2.080
462.34	2.067
462.54	2.063
462.74	2.059
462.95	2.069
463.15	2.066
463.35	2.058
463.55	2.052
463.75	2.053
463.95	2.044
464.15	2.058
464.35	2.063
464.55	2.063
464.75	2.070
464.95	2.092
465.16	2.091
465.36	2.089
465.56	2.084
465.76	2.109
465.96	2.107
466.16	2.115
466.36	2.106
466.56	2.084
466.76	2.080
466.96	2.083
467.16	2.080
467.36	2.080
467.57	2.084
467.77	2.096
467.97	2.086
468.17	2.077
468.37	2.072
468.57	2.080
468.77	2.090
468.97	2.097
469.17	2.108
469.37	2.107
469.57	2.121
469.77	2.126
469.97	2.137
470.17	2.142
470.37	2.153
470.57	2.160
470.78	2.151
470.98	2.166
471.18	2.174
471.38	2.166
471.58	2.176
471.78	2.174
471.98	2.184
472.18	2.185
472.38	2.183
472.58	2.190
472.78	2.196
472.98	2.209
473.18	2.211
473.38	2.209
473.58	2.218
473.78	2.213
473.98	2.219
474.18	2.232
474.38	2.226
474.58	2.229
474.78	2.237
474.98	2.237
475.18	2.242
475.38	2.249
475.58	2.251
475.79	2.239
475.99	2.233
476.19	2.230
476.39	2.211
476.59	2.215
476.79	2.228
476.99	2.219
477.19	2.221
477.39	2.197
477.59	2.190
477.79	2.200
477.99	2.199
478.19	2.203
478.39	2.208
478.59	2.212
478.79	2.215
478.99	2.208
479.19	2.214
479.39	2.218
479.59	2.253
479.79	2.259
479.99	2.260
480.19	2.258
480.39	2.259
480.59	2.264
480.79	2.272
480.99	2.268
481.19	2.272
481.39	2.267
481.59	2.267
481.79	2.263
481.99	2.266
482.19	2.267
482.39	2.282
482.59	2.290
482.79	2.287
482.99	2.293
483.19	2.325
483.39	2.364
483.59	2.396
483.79	2.402
483.99	2.394
484.19	2.383
484.39	2.381
484.58	2.379
484.78	2.382
484.98	2.387
485.18	2.391
485.38	2.379
485.58	2.346
485.78	2.315
485.98	2.303
486.18	2.309
486.38	2.331
486.58	2.343
486.78	2.345
486.98	2.352
487.18	2.359
487.38	2.363
487.58	2.366
487.78	2.377
487.98	2.383
488.18	2.384
488.38	2.384
488.58	2.378
488.78	2.373
488.98	2.380
489.18	2.381
489.37	2.379
489.57	2.381
489.77	2.385
489.97	2.383
490.17	2.384
490.37	2.394
490.57	2.400
490.77	2.412
490.97	2.426
491.17	2.424
491.37	2.426
491.57	2.435
491.77	2.435
491.97	2.438
492.17	2.440
492.37	2.446
492.56	2.443
492.76	2.447
492.96	2.454
493.16	2.457
493.36	2.465
493.56	2.472
493.76	2.473
493.96	2.482
494.16	2.487
494.36	2.493
494.56	2.493
494.76	2.514
494.95	2.518
495.15	2.515
495.35	2.515
495.55	2.524
495.75	2.525
495.95	2.532
496.15	2.545
496.35	2.556
496.55	2.560
496.75	2.569
496.95	2.568
497.14	2.576
497.34	2.581
497.54	2.589
497.74	2.597
497.94	2.612
498.14	2.613
498.34	2.609
498.54	2.605
498.74	2.610
498.93	2.617
499.13	2.624
499.33	2.639
499.53	2.646
499.73	2.660
499.93	2.661
500.13	2.654
500.33	2.661
500.53	2.668
500.72	2.678
500.92	2.683
501.12	2.686
501.32	2.676
501.52	2.663
501.72	2.662
501.92	2.657
502.12	2.655
502.31	2.673
502.51	2.680
502.71	2.678
502.91	2.679
503.11	2.695
503.31	2.698
503.51	2.708
503.70	2.720
503.90	2.737
504.10	2.746
504.30	2.754
504.50	2.745
504.70	2.759
504.90	2.764
505.09	2.777
505.29	2.779
505.49	2.775
505.69	2.787
505.89	2.799
506.09	2.789
506.29	2.787
506.48	2.797
506.68	2.809
506.88	2.811
507.08	2.823
507.28	2.831
507.48	2.829
507.67	2.841
507.87	2.848
508.07	2.847
508.27	2.864
508.47	2.876
508.67	2.885
508.86	2.881
509.06	2.878
509.26	2.885
509.46	2.901
509.66	2.905
509.85	2.913
510.05	2.924
510.25	2.932
510.45	2.935
510.65	2.942
510.85	2.932
511.04	2.941
511.24	2.953
511.44	2.960
511.64	2.955
511.84	2.975
512.03	2.983
512.23	2.979
512.43	2.974
512.63	2.975
512.83	2.977
513.02	2.994
513.22	3.003
513.42	3.005
513.62	3.005
513.82	3.011
514.01	3.016
514.21	3.022
514.41	3.033
514.61	3.049
514.81	3.053
515.00	3.059
515.20	3.063
515.40	3.080
515.60	3.085
515.80	3.090
515.99	3.085
516.19	3.077
516.39	3.082
516.59	3.085
516.78	3.092
516.98	3.096
517.18	3.097
517.38	3.106
517.58	3.104
517.77	3.115
517.97	3.122
518.17	3.142
518.37	3.155
518.56	3.160
518.76	3.167
518.96	3.173
519.16	3.177
519.36	3.188
519.55	3.187
519.75	3.197
519.95	3.203
520.15	3.211
520.34	3.212
520.54	3.215
520.74	3.222
520.94	3.224
521.13	3.237
521.33	3.252
521.53	3.255
521.73	3.267
521.92	3.271
522.12	3.285
522.32	3.298
522.52	3.306
522.71	3.318
522.91	3.333
523.11	3.349
523.31	3.346
523.50	3.341
523.70	3.352
523.90	3.358
524.09	3.369
524.29	3.373
524.49	3.378
524.69	3.389
524.88	3.394
525.08	3.396
525.28	3.400
525.48	3.409
525.67	3.425
525.87	3.436
526.07	3.435
526.26	3.435
526.46	3.439
526.66	3.451
526.86	3.451
527.05	3.452
527.25	3.462
527.45	3.472
527.64	3.479
527.84	3.489
528.04	3.507
528.24	3.531
528.43	3.547
528.63	3.557
528.83	3.561
529.02	3.564
529.22	3.573
529.42	3.574
529.62	3.577
529.81	3.581
530.01	3.582
530.21	3.575
530.40	3.570
530.60	3.565
530.80	3.565
530.99	3.570
531.19	3.575
531.39	3.576
531.58	3.588
531.78	3.597
531.98	3.610
532.18	3.623
532.37	3.645
532.57	3.657
532.77	3.670
532.96	3.672
533.16	3.679
533.36	3.687
533.55	3.699
533.75	3.698
533.95	3.708
534.14	3.709
534.34	3.722
534.54	3.719
534.73	3.724
534.93	3.729
535.13	3.737
535.32	3.745
535.52	3.754
535.72	3.758
535.91	3.774
536.11	3.777
536.31	3.792
536.50	3.796
536.70	3.806
536.90	3.816
537.09	3.829
537.29	3.841
537.48	3.849
537.68	3.855
537.88	3.867
538.07	3.879
538.27	3.887
538.47	3.892
538.66	3.900
538.86	3.913
539.06	3.918
539.25	3.925
539.45	3.941
539.65	3.954
539.84	3.970
540.04	3.969
540.23	3.977
540.43	3.991
540.63	4.015
540.82	4.029
541.02	4.034
541.22	4.040
541.41	4.048
541.61	4.042
541.80	4.041
542.00	4.043
542.20	4.049
542.39	4.055
542.59	4.062
542.79	4.062
542.98	4.060
543.18	4.061
543.37	4.070
543.57	4.071
543.77	4.086
543.96	4.093
544.16	4.100
544.35	4.112
544.55	4.121
544.75	4.119
544.94	4.118
545.14	4.135
545.33	4.159
545.53	4.163
545.73	4.177
545.92	4.184
546.12	4.203
546.31	4.207
546.51	4.216
546.71	4.214
546.90	4.227
547.10	4.240
547.29	4.247
547.49	4.260
547.69	4.271
547.88	4.277
548.08	4.284
548.27	4.289
548.47	4.304
548.66	4.303
548.86	4.313
549.06	4.324
549.25	4.328
549.45	4.336
549.64	4.335
549.84	4.344
550.03	4.355
550.23	4.363
550.43	4.369
550.62	4.372
550.82	4.391
551.01	4.411
551.21	4.421
551.40	4.442
551.60	4.464
551.80	4.453
551.99	4.458
552.19	4.470
552.38	4.484
552.58	4.481
552.77	4.492
552.97	4.509
553.16	4.504
553.36	4.507
553.56	4.509
553.75	4.502
553.95	4.523
554.14	4.527
554.34	4.533
554.53	4.543
554.73	4.563
554.92	4.564
555.12	4.560
555.31	4.578
555.51	4.598
555.70	4.606
555.90	4.609
556.10	4.617
556.29	4.630
556.49	4.621
556.68	4.637
556.88	4.643
557.07	4.651
557.27	4.662
557.46	4.659
557.66	4.658
557.85	4.674
558.05	4.687
558.24	4.696
558.44	4.717
558.63	4.724
558.83	4.712
559.02	4.726
559.22	4.741
559.41	4.748
559.61	4.762
559.80	4.768
560.00	4.766
560.19	4.778
560.39	4.777
560.58	4.777
560.78	4.796
560.97	4.799
561.17	4.804
561.36	4.816
561.56	4.816
561.75	4.835
561.95	4.858
562.14	4.864
562.34	4.868
562.53	4.888
562.73	4.888
562.92	4.893
563.12	4.908
563.31	4.908
563.51	4.916
563.70	4.922
563.90	4.928
564.09	4.929
564.29	4.951
564.48	4.961
564.68	4.968
564.87	4.991
565.07	4.994
565.26	5.011
565.45	5.025
565.65	5.042
565.84	5.062
566.04	5.064
566.23	5.064
566.43	5.076
566.62	5.083
566.82	5.087
567.01	5.088
567.21	5.101
567.40	5.095
567.60	5.102
567.79	5.101
567.98	5.120
568.18	5.138
568.37	5.151
568.57	5.141
568.76	5.157
568.96	5.169
569.15	5.178
569.35	5.188
569.54	5.204
569.73	5.212
569.93	5.227
570.12	5.212
570.32	5.211
570.51	5.213
570.71	5.216
570.90	5.229
571.09	5.244
571.29	5.264
571.48	5.284
571.68	5.297
571.87	5.311
572.07	5.316
572.26	5.325
572.45	5.338
572.65	5.356
572.84	5.377
573.04	5.376
573.23	5.381
573.43	5.391
573.62	5.395
573.81	5.416
574.01	5.414
574.20	5.414
574.40	5.440
574.59	5.448
574.78	5.438
574.98	5.451
575.17	5.460
575.37	5.463
575.56	5.460
575.75	5.468
575.95	5.473
576.14	5.479
576.34	5.486
576.53	5.486
576.72	5.490
576.92	5.514
577.11	5.514
577.31	5.537
577.50	5.535
577.69	5.553
577.89	5.560
578.08	5.554
578.28	5.562
578.47	5.570
578.66	5.579
578.86	5.589
579.05	5.591
579.24	5.602
579.44	5.595
579.63	5.607
579.83	5.619
580.02	5.628
580.21	5.646
580.41	5.654
580.60	5.683
580.79	5.699
580.99	5.716
581.18	5.734
581.38	5.743
581.57	5.759
581.76	5.771
581.96	5.780
582.15	5.786
582.34	5.789
582.54	5.801
582.73	5.805
582.92	5.799
583.12	5.795
583.31	5.794
583.50	5.782
583.70	5.794
583.89	5.805
584.08	5.799
584.28	5.809
584.47	5.813
584.66	5.828
584.86	5.830
585.05	5.840
585.24	5.848
585.44	5.859
585.63	5.892
585.82	5.891
586.02	5.892
586.21	5.897
586.40	5.900
586.60	5.923
586.79	5.936
586.98	5.943
587.18	5.958
587.37	5.958
587.56	5.968
587.76	5.975
587.95	5.984
588.14	6.003
588.34	6.025
588.53	6.033
588.72	6.040
588.92	6.048
589.11	6.064
589.30	6.065
589.50	6.093
589.69	6.111
589.88	6.111
590.07	6.120
590.27	6.135
590.46	6.142
590.65	6.156
590.85	6.167
591.04	6.164
591.23	6.169
591.43	6.178
591.62	6.191
591.81	6.181
592.00	6.200
592.20	6.207
592.39	6.222
592.58	6.223
592.78	6.235
592.97	6.240
593.16	6.261
593.35	6.279
593.55	6.280
593.74	6.280
593.93	6.310
594.13	6.311
594.32	6.324
594.51	6.333
594.70	6.355
594.90	6.363
595.09	6.366
595.28	6.358
595.47	6.358
595.67	6.387
595.86	6.401
596.05	6.411
596.24	6.424
596.44	6.433
596.63	6.424
596.82	6.411
597.02	6.412
597.21	6.430
597.40	6.461
597.59	6.461
597.79	6.453
597.98	6.453
598.17	6.444
598.36	6.457
598.56	6.469
598.75	6.474
598.94	6.503
599.13	6.517
599.32	6.524
599.52	6.512
599.71	6.549
599.90	6.573
600.09	6.586
600.29	6.609
600.48	6.616
600.67	6.619
600.86	6.646
601.06	6.641
601.25	6.653
601.44	6.637
601.63	6.656
601.82	6.645
602.02	6.652
602.21	6.660
602.40	6.681
602.59	6.695
602.79	6.710
602.98	6.720
603.17	6.743
603.36	6.755
603.55	6.778
603.75	6.776
603.94	6.799
604.13	6.787
604.32	6.803
604.51	6.794
604.71	6.795
604.90	6.794
605.09	6.801
605.28	6.806
605.47	6.811
605.67	6.820
605.86	6.827
606.05	6.827
606.24	6.851
606.43	6.854
606.63	6.871
606.82	6.878
607.01	6.901
607.20	6.908
607.39	6.917
607.59	6.917
607.78	6.931
607.97	6.937
608.16	6.939
608.35	6.947
608.54	6.956
608.74	6.952
608.93	6.976
609.12	6.986
609.31	7.002
609.50	7.012
609.69	7.037
609.89	7.045
610.08	7.063
610.27	7.078
610.46	7.086
610.65	7.094
610.84	7.106
611.04	7.103
611.23	7.108
611.42	7.114
611.61	7.115
611.80	7.119
611.99	7.127
612.19	7.136
612.38	7.151
612.57	7.154
612.76	7.173
612.95	7.189
613.14	7.192
613.33	7.187
613.53	7.188
613.72	7.208
613.91	7.199
614.10	7.222
614.29	7.219
614.48	7.228
614.67	7.255
614.86	7.264
615.06	7.265
615.25	7.272
615.44	7.299
615.63	7.315
615.82	7.320
616.01	7.344
616.20	7.330
616.39	7.349
616.59	7.336
616.78	7.327
616.97	7.333
617.16	7.340
617.35	7.356
617.54	7.356
617.73	7.354
617.92	7.362
618.12	7.363
618.31	7.379
618.50	7.410
618.69	7.414
618.88	7.425
619.07	7.423
619.26	7.429
619.45	7.434
619.64	7.441
619.83	7.464
620.03	7.478
620.22	7.496
620.41	7.504
620.60	7.485
620.79	7.512
620.98	7.509
621.17	7.529
621.36	7.537
621.55	7.570
621.74	7.585
621.93	7.590
622.12	7.621
622.32	7.623
622.51	7.631
622.70	7.651
622.89	7.644
623.08	7.668
623.27	7.687
623.46	7.707
623.65	7.692
623.84	7.700
624.03	7.708
624.22	7.705
624.41	7.714
624.60	7.723
624.79	7.735
624.99	7.765
625.18	7.770
625.37	7.773
625.56	7.787
625.75	7.821
625.94	7.842
626.13	7.856
626.32	7.860
626.51	7.872
626.70	7.889
626.89	7.895
627.08	7.898
627.27	7.906
627.46	7.899
627.65	7.904
627.84	7.895
628.03	7.889
628.22	7.884
628.41	7.887
628.60	7.884
628.79	7.887
628.98	7.887
629.17	7.878
629.37	7.899
629.56	7.925
629.75	7.943
629.94	7.952
630.13	7.965
630.32	7.972
630.51	7.975
630.70	8.006
630.89	8.005
631.08	8.034
631.27	8.046
631.46	8.051
631.65	8.056
631.84	8.072
632.03	8.076
632.22	8.083
632.41	8.098
632.60	8.115
632.79	8.118
632.98	8.138
633.17	8.136
633.36	8.171
633.55	8.185
633.74	8.215
633.93	8.211
634.12	8.240
634.31	8.271
634.50	8.272
634.69	8.276
634.88	8.291
635.07	8.302
635.26	8.304
635.45	8.306
635.64	8.312
635.83	8.312
636.02	8.330
636.21	8.339
636.40	8.334
636.59	8.358
636.78	8.373
636.96	8.381
637.15	8.386
637.34	8.400
637.53	8.392
637.72	8.391
637.91	8.374
638.10	8.378
638.29	8.389
638.48	8.411
638.67	8.405
638.86	8.404
639.05	8.409
639.24	8.414
639.43	8.457
639.62	8.475
639.81	8.485
640.00	8.505
640.19	8.517
640.38	8.525
640.57	8.512
640.76	8.535
640.95	8.552
641.14	8.571
641.32	8.610
641.51	8.597
641.70	8.612
641.89	8.639
642.08	8.657
642.27	8.659
642.46	8.670
642.65	8.667
642.84	8.681
643.03	8.708
643.22	8.693
643.41	8.690
643.60	8.719
643.79	8.757
643.98	8.747
644.16	8.759
644.35	8.756
644.54	8.748
644.73	8.771
644.92	8.771
645.11	8.753
645.30	8.781
645.49	8.794
645.68	8.766
645.87	8.742
646.06	8.763
646.24	8.776
646.43	8.783
646.62	8.789
646.81	8.813
647.00	8.829
647.19	8.848
647.38	8.861
647.57	8.852
647.76	8.880
647.95	8.884
648.13	8.890
648.32	8.888
648.51	8.923
648.70	8.946
648.89	8.928
649.08	8.940
649.27	8.949
649.46	8.968
649.65	8.978
649.83	8.984
650.02	9.002
650.21	9.026
650.40	9.034
650.59	9.025
650.78	9.036
650.97	9.062
651.16	9.069
651.34	9.077
651.53	9.057
651.72	9.076
651.91	9.060
652.10	9.066
652.29	9.079
652.48	9.098
652.66	9.114
652.85	9.116
653.04	9.146
653.23	9.146
653.42	9.160
653.61	9.176
653.80	9.170
653.98	9.180
654.17	9.192
654.36	9.185
654.55	9.195
654.74	9.211
654.93	9.227
655.11	9.216
655.30	9.222
655.49	9.242
655.68	9.276
655.87	9.303
656.06	9.333
656.24	9.349
656.43	9.360
656.62	9.367
656.81	9.377
657.00	9.414
657.19	9.432
657.37	9.465
657.56	9.470
657.75	9.422
657.94	9.438
658.13	9.438
658.31	9.459
658.50	9.480
658.69	9.505
658.88	9.496
659.07	9.480
659.26	9.497
659.44	9.493
659.63	9.513
659.82	9.560
660.01	9.565
660.20	9.578
660.38	9.589
660.57	9.596
660.76	9.581
660.95	9.628
661.14	9.649
661.32	9.649
661.51	9.661
661.70	9.661
661.89	9.679
662.08	9.700
662.26	9.739
662.45	9.727
662.64	9.717
662.83	9.756
663.01	9.727
663.20	9.704
663.39	9.725
663.58	9.746
663.77	9.748
663.95	9.742
664.14	9.751
664.33	9.743
664.52	9.765
664.70	9.784
664.89	9.778
665.08	9.797
665.27	9.822
665.45	9.817
665.64	9.804
665.83	9.803
666.02	9.834
666.20	9.816
666.39	9.817
666.58	9.838
666.77	9.838
666.95	9.825
667.14	9.830
667.33	9.848
667.52	9.844
667.70	9.862
667.89	9.889
668.08	9.895
668.27	9.906
668.45	9.905
668.64	9.885
668.83	9.900
669.02	9.910
669.20	9.920
669.39	9.930
669.58	9.955
669.77	9.954
669.95	9.938
670.14	9.927
670.33	9.939
670.51	9.971
670.70	10.008
670.89	10.039
671.08	10.075
671.26	10.109
671.45	10.130
671.64	10.131
671.82	10.142
672.01	10.167
672.20	10.186
672.39	10.207
672.57	10.201
672.76	10.192
672.95	10.165
673.13	10.167
673.32	10.156
673.51	10.148
673.70	10.145
673.88	10.168
674.07	10.176
674.26	10.175
674.44	10.195
674.63	10.196
674.82	10.222
675.00	10.242
675.19	10.271
675.38	10.284
675.56	10.304
675.75	10.320
675.94	10.336
676.12	10.340
676.31	10.355
676.50	10.331
676.69	10.381
676.87	10.402
677.06	10.417
677.25	10.403
677.43	10.432
677.62	10.435
677.81	10.481
677.99	10.481
678.18	10.502
678.37	10.542
678.55	10.576
678.74	10.558
678.93	10.574
679.11	10.574
679.30	10.575
679.48	10.580
679.67	10.595
679.86	10.605
680.04	10.624
680.23	10.649
680.42	10.653
680.60	10.680
680.79	10.688
680.98	10.685
681.16	10.707
681.35	10.743
681.54	10.721
681.72	10.719
681.91	10.709
682.10	10.713
682.28	10.717
682.47	10.723
682.65	10.702
682.84	10.717
683.03	10.712
683.21	10.707
683.40	10.696
683.59	10.720
683.77	10.726
683.96	10.732
684.14	10.742
684.33	10.732
684.52	10.763
684.70	10.767
684.89	10.769
685.07	10.787
685.26	10.821
685.45	10.828
685.63	10.845
685.82	10.871
686.00	10.906
686.19	10.933
686.38	10.967
686.56	10.952
686.75	10.992
686.93	11.008
687.12	10.999
687.31	11.001
687.49	11.013
687.68	11.030
687.86	11.033
688.05	11.019
688.24	11.008
688.42	11.004
688.61	10.994
688.79	10.977
688.98	10.987
689.17	11.002
689.35	11.024
689.54	11.040
689.72	11.019
689.91	11.024
690.09	11.041
690.28	11.053
690.47	11.058
690.65	11.076
690.84	11.103
691.02	11.131
691.21	11.132
691.39	11.146
691.58	11.139
691.76	11.164
691.95	11.167
692.14	11.179
692.32	11.190
692.51	11.209
692.69	11.242
692.88	11.239
693.06	11.222
693.25	11.237
693.43	11.225
693.62	11.255
693.81	11.279
693.99	11.316
694.18	11.306
694.36	11.306
694.55	11.324
694.73	11.320
694.92	11.349
695.10	11.341
695.29	11.352
695.47	11.374
695.66	11.374
695.84	11.415
696.03	11.405
696.21	11.423
696.40	11.441
696.59	11.470
696.77	11.468
696.96	11.450
697.14	11.504
697.33	11.531
697.51	11.560
697.70	11.571
697.88	11.579
698.07	11.600
698.25	11.615
698.44	11.636
698.62	11.637
698.81	11.647
698.99	11.686
699.18	11.689
699.36	11.700
699.55	11.692
699.73	11.695
699.92	11.667
700.10	11.676
700.29	11.707
700.47	11.707
700.66	11.720
700.84	11.759
701.03	11.758
701.21	11.747
701.40	11.729
701.58	11.728
701.77	11.744
701.95	11.786
702.13	11.792
702.32	11.791
702.50	11.802
702.69	11.783
702.87	11.746
703.06	11.754
703.24	11.758
703.43	11.789
703.61	11.836
703.80	11.831
703.98	11.810
704.17	11.815
704.35	11.804
704.54	11.819
704.72	11.819
704.90	11.828
705.09	11.829
705.27	11.912
705.46	11.919
705.64	11.888
705.83	11.932
706.01	11.971
706.20	11.997
706.38	12.030
706.56	12.041
706.75	12.063
706.93	12.075
707.12	12.109
707.30	12.077
707.49	12.106
707.67	12.127
707.86	12.136
708.04	12.149
708.22	12.122
708.41	12.131
708.59	12.128
708.78	12.127
708.96	12.156
709.14	12.187
709.33	12.212
709.51	12.210
709.70	12.246
709.88	12.248
710.07	12.232
710.25	12.282
710.43	12.281
710.62	12.317
710.80	12.328
710.99	12.377
711.17	12.347
711.35	12.329
711.54	12.321
711.72	12.289
711.91	12.317
712.09	12.323
712.27	12.319
712.46	12.320
712.64	12.337
712.83	12.352
713.01	12.316
713.19	12.303
713.38	12.319
713.56	12.346
713.75	12.362
713.93	12.343
714.11	12.360
714.30	12.373
714.48	12.409
714.66	12.405
714.85	12.443
715.03	12.460
715.22	12.469
715.40	12.471
715.58	12.516
715.77	12.571
715.95	12.612
716.13	12.618
716.32	12.617
716.50	12.599
716.68	12.595
716.87	12.604
717.05	12.617
717.24	12.644
717.42	12.673
717.60	12.656
717.79	12.660
717.97	12.647
718.15	12.674
718.34	12.709
718.52	12.744
718.70	12.747
718.89	12.735
719.07	12.714
719.25	12.718
719.44	12.731
719.62	12.709
719.80	12.717
719.99	12.700
720.17	12.713
720.35	12.710
720.54	12.685
720.72	12.707
720.90	12.724
721.09	12.781
721.27	12.800
721.45	12.786
721.64	12.819
721.82	12.814
722.00	12.884
722.19	12.871
722.37	12.850
722.55	12.897
722.74	12.932
722.92	12.956
723.10	12.985
723.28	13.033
723.47	13.077
723.65	13.104
723.83	13.137
724.02	13.115
724.20	13.159
724.38	13.198
724.57	13.190
724.75	13.170
724.93	13.173
725.11	13.143
725.30	13.135
725.48	13.151
725.66	13.159
725.85	13.132
726.03	13.127
726.21	13.166
726.39	13.179
726.58	13.228
726.76	13.259
726.94	13.278
727.13	13.259
727.31	13.294
727.49	13.292
727.67	13.315
727.86	13.354
728.04	13.384
728.22	13.333
728.40	13.390
728.59	13.377
728.77	13.382
728.95	13.384
729.13	13.428
729.32	13.408
729.50	13.420
729.68	13.411
729.86	13.416
730.05	13.433
730.23	13.467
730.41	13.420
730.59	13.424
730.78	13.453
730.96	13.450
731.14	13.503
731.32	13.523
731.51	13.509
731.69	13.528
731.87	13.531
732.05	13.549
732.24	13.564
732.42	13.595
732.60	13.612
732.78	13.604
732.97	13.621
733.15	13.615
733.33	13.650
733.51	13.669
733.69	13.660
733.88	13.651
734.06	13.661
734.24	13.667
734.42	13.680
734.60	13.689
734.79	13.691
734.97	13.711
735.15	13.683
735.33	13.671
735.52	13.661
735.70	13.685
735.88	13.707
736.06	13.695
736.24	13.700
736.43	13.744
736.61	13.736
736.79	13.787
736.97	13.770
737.15	13.783
737.34	13.797
737.52	13.796
737.70	13.809
737.88	13.860
738.06	13.891
738.24	13.907
738.43	13.873
738.61	13.926
738.79	13.920
738.97	13.958
739.15	13.941
739.33	13.933
739.52	13.940
739.70	13.935
739.88	13.918
740.06	13.923
740.24	13.883
740.42	13.890
740.61	13.843
740.79	13.836
740.97	13.794
741.15	13.853
741.33	13.901
741.51	13.962
741.70	13.997
741.88	14.037
742.06	14.058
742.24	14.111
742.42	14.132
742.60	14.189
742.78	14.207
742.97	14.256
743.15	14.257
743.33	14.274
743.51	14.282
743.69	14.276
743.87	14.309
744.05	14.301
744.24	14.314
744.42	14.324
744.60	14.318
744.78	14.348
744.96	14.384
745.14	14.432
745.32	14.395
745.50	14.416
745.69	14.425
745.87	14.359
746.05	14.339
746.23	14.388
746.41	14.371
746.59	14.412
746.77	14.422
746.95	14.411
747.13	14.396
747.32	14.404
747.50	14.414
747.68	14.432
747.86	14.448
748.04	14.503
748.22	14.477
748.40	14.542
748.58	14.526
748.76	14.513
748.94	14.540
749.13	14.529
749.31	14.584
749.49	14.569
749.67	14.616
749.85	14.663
750.03	14.700
750.21	14.711
750.39	14.703
750.57	14.756
750.75	14.741
750.93	14.731
751.11	14.765
751.30	14.743
751.48	14.812
751.66	14.797
751.84	14.808
752.02	14.820
752.20	14.867
752.38	14.881
752.56	14.868
752.74	14.948
752.92	14.981
753.10	15.007
753.28	15.042
753.46	14.978
753.64	14.951
753.82	14.968
754.00	14.960
754.18	14.936
754.37	14.918
754.55	14.968
754.73	14.921
754.91	14.933
755.09	14.909
755.27	14.931
755.45	14.929
755.63	14.975
755.81	14.971
755.99	14.932
756.17	14.912
756.35	14.926
756.53	14.840
756.71	14.881
756.89	14.888
757.07	14.884
757.25	14.846
757.43	14.875
757.61	14.868
757.79	14.857
757.97	14.857
758.15	14.929
758.33	14.981
758.51	15.052
758.69	15.059
758.87	15.067
759.05	15.101
759.23	15.128
759.41	15.187
759.59	15.239
759.77	15.240
759.95	15.279
760.13	15.230
760.31	15.219
760.49	15.226
760.67	15.244
760.85	15.297
761.03	15.297
761.21	15.360
761.39	15.390
761.57	15.442
761.75	15.477
761.93	15.499
762.11	15.541
762.29	15.529
762.47	15.527
762.65	15.532
762.83	15.501
763.01	15.490
763.19	15.532
763.37	15.515
763.55	15.531
763.73	15.577
763.91	15.641
764.09	15.655
764.27	15.681
764.45	15.661
764.63	15.667
764.81	15.707
764.99	15.729
765.16	15.672
765.34	15.669
765.52	15.641
765.70	15.605
765.88	15.572
766.06	15.567
766.24	15.584
766.42	15.593
766.60	15.603
766.78	15.583
766.96	15.604
767.14	15.624
767.32	15.625
767.50	15.598
767.68	15.646
767.86	15.646
768.03	15.673
768.21	15.668
768.39	15.681
768.57	15.677
768.75	15.646
768.93	15.638
769.11	15.666
769.29	15.729
769.47	15.789
769.65	15.774
769.83	15.841
770.01	15.866
770.19	15.908
770.36	15.956
770.54	15.985
770.72	16.018
770.90	15.972
771.08	16.011
771.26	15.958
771.44	15.961
771.62	15.992
771.80	15.968
771.98	15.936
772.15	15.926
772.33	15.944
772.51	15.973
772.69	16.008
772.87	16.104
773.05	16.073
773.23	16.088
773.41	16.082
773.58	16.063
773.76	16.130
773.94	16.090
774.12	16.029
774.30	16.014
774.48	15.973
774.66	15.983
774.84	15.913
775.01	15.910
775.19	16.004
775.37	16.110
775.55	16.070
775.73	16.028
775.91	16.166
776.09	16.223
776.26	16.255
776.44	16.230
776.62	16.267
776.80	16.289
776.98	16.418
777.16	16.353
777.34	16.311
777.51	16.354
777.69	16.325
777.87	16.261
778.05	16.271
778.23	16.312
778.41	16.365
778.58	16.334
778.76	16.425
778.94	16.381
779.12	16.465
779.30	16.457
779.48	16.503
779.65	16.553
779.83	16.517
780.01	16.559
780.19	16.550
780.37	16.582
780.55	16.608
780.72	16.623
780.90	16.615
781.08	16.604
781.26	16.678
781.44	16.712
781.61	16.719
781.79	16.859
781.97	16.838
782.15	16.817
782.33	16.841
782.50	16.710
782.68	16.732
782.86	16.714
783.04	16.671
783.22	16.624
783.39	16.592
783.57	16.611
783.75	16.544
783.93	16.576
784.11	16.612
784.28	16.457
784.46	16.561
784.64	16.529
784.82	16.558
784.99	16.551
785.17	16.554
785.35	16.663
785.53	16.693
785.71	16.730
785.88	16.737
786.06	16.793
786.24	17.046
786.42	17.128
786.59	17.124
786.77	17.099
786.95	17.173
787.13	17.246
787.30	17.232
787.48	17.249
787.66	17.300
787.84	17.291
788.01	17.269
788.19	17.206
788.37	17.198
788.55	17.194
788.72	17.264
788.90	17.254
789.08	17.272
789.26	17.200
789.43	17.232
789.61	17.209
789.79	17.248
789.97	17.286
790.14	17.275
790.32	17.297
790.50	17.322
790.68	17.304
790.85	17.310
791.03	17.322
791.21	17.383
791.38	17.339
791.56	17.265
791.74	17.303
791.92	17.199
792.09	17.178
792.27	17.183
792.45	17.246
792.62	17.269
792.80	17.249
792.98	17.024
793.16	17.054
793.33	17.058
793.51	17.116
793.69	17.035
793.86	17.021
794.04	17.096
794.22	17.160
794.39	17.138
794.57	17.164
794.75	17.221
794.93	17.462
795.10	17.392
795.28	17.427
795.46	17.496
795.63	17.531
795.81	17.694
795.99	17.635
796.16	17.541
796.34	17.564
796.52	17.532
796.69	17.566
796.87	17.524
797.05	17.674
797.22	17.641
797.40	17.684
797.58	17.634
797.75	17.623
797.93	17.712
798.11	17.844
798.28	17.833
798.46	17.922
798.64	17.860
798.81	17.907
798.99	17.800
799.17	17.859
799.34	17.708
799.52	17.807
799.70	17.749
799.87	17.784
800.05	17.607
800.22	17.567
800.40	17.476
800.58	17.506
800.75	17.486
800.93	17.645
801.11	17.623
801.28	17.851
801.46	17.745
801.63	17.926
801.81	17.908
801.99	18.094
802.16	18.153
802.34	18.252
802.52	18.244
802.69	18.220
802.87	18.052
803.04	18.091
803.22	17.983
803.40	18.096
803.57	18.010
803.75	17.938
803.93	17.811
804.10	17.773
804.28	17.716
804.45	17.807
804.63	17.916
804.81	18.094
804.98	18.204
805.16	18.314
805.33	18.445
805.51	18.442
805.68	18.549
805.86	18.647
806.04	18.701
806.21	18.772
806.39	18.720
806.56	18.641
806.74	18.536
806.92	18.485
807.09	18.391
807.27	18.285
807.44	18.297
807.62	18.262
807.79	18.299
807.97	18.396
808.15	18.312
808.32	18.255
808.50	18.234
808.67	18.292
808.85	18.202
809.02	18.288
809.20	18.221
809.38	18.220
809.55	18.200
809.73	18.222
809.90	18.071
810.08	18.108
810.25	18.144
810.43	18.175
810.60	18.110
810.78	18.132
810.95	17.931
811.13	18.126
811.31	18.052
811.48	18.134
811.66	18.095
811.83	18.182
812.01	18.140
812.18	18.171
812.36	18.117
812.53	18.093
812.71	18.104
812.88	18.214
813.06	18.222
813.23	18.340
813.41	18.372
813.58	18.357
813.76	18.378
813.93	18.488
814.11	18.578
814.28	18.762
814.46	19.014
814.63	19.236
814.81	19.381
814.98	19.278
815.16	19.252
815.33	19.120
815.51	19.133
815.68	19.239
815.86	19.178
816.03	19.033
816.21	18.936
816.38	18.693
816.56	18.500
816.73	18.392
816.91	18.519
817.08	18.609
817.26	18.672
817.43	18.764
817.61	18.676
817.78	18.682
817.96	18.825
818.13	18.916
818.31	18.903
818.48	19.050
818.66	19.221
818.83	19.075
819.01	18.945
819.18	19.014
819.36	19.000
819.53	19.071
819.70	19.139
819.88	19.299
820.05	19.324
820.23	19.533
820.40	19.516
820.58	19.467
820.75	19.590
820.93	19.665
821.10	19.704
821.28	19.802
821.45	19.791
821.62	19.914
821.80	19.877
821.97	19.993
822.15	20.007
822.32	20.068
822.50	20.222
822.67	20.359
822.84	20.481
823.02	20.453
823.19	20.324
823.37	20.203
823.54	20.057
823.72	19.938
823.89	19.810
824.06	19.738
824.24	19.675
824.41	19.595
824.59	19.515
824.76	19.414
824.94	19.326
825.11	19.264
825.28	19.206
825.46	19.160
825.63	19.141
825.81	19.146
825.98	19.143
826.15	19.166
826.33	19.168
826.50	19.197
826.68	19.245
826.85	19.276
827.02	19.298
827.20	19.370
827.37	19.532
827.54	19.707
827.72	19.902
827.89	20.063
828.07	20.144
828.24	20.246
828.41	20.230
828.59	20.194
828.76	20.149
828.94	20.095
829.11	20.053
829.28	19.986
829.46	19.881
829.63	19.793
829.80	19.675
829.98	19.566
830.15	19.458
830.32	19.396
830.50	19.354
830.67	19.387
830.85	19.394
831.02	19.396
831.19	19.385
831.37	19.431
831.54	19.435
831.71	19.473
831.89	19.613
832.06	19.651
832.23	19.681
832.41	19.700
832.58	19.758
832.75	19.926
832.93	19.912
833.10	19.941
833.27	20.045
833.45	20.251
833.62	20.307
833.79	20.274
833.97	20.461
834.14	20.524
834.31	20.703
834.49	20.858
834.66	20.884
834.83	21.024
835.01	21.022
835.18	20.955
835.35	20.830
835.52	20.750
835.70	20.718
835.87	20.671
836.04	20.649
836.22	20.550
836.39	20.407
836.56	20.320
836.74	20.204
836.91	20.139
837.08	20.063
837.25	20.045
837.43	20.080
837.60	20.011
837.77	19.917
837.95	19.860
838.12	19.849
838.29	19.859
838.46	19.857
838.64	19.821
838.81	19.759
838.98	19.824
839.16	19.818
839.33	19.894
839.50	19.981
839.67	20.080
839.85	19.962
840.02	20.072
840.19	20.033
840.36	20.175
840.54	20.296
840.71	20.390
840.88	20.442
841.06	20.526
841.23	20.646
841.40	20.761
841.57	20.768
841.75	20.912
841.92	20.792
842.09	20.754
842.26	20.702
842.44	20.640
842.61	20.550
842.78	20.569
842.95	20.577
843.12	20.404
843.30	20.155
843.47	20.104
843.64	19.981
843.81	20.138
843.99	20.147
844.16	20.166
844.33	20.091
844.50	20.290
844.68	20.193
844.85	20.000
845.02	20.142
845.19	20.284
845.36	20.088
845.54	20.138
845.71	20.050
845.88	20.138
846.05	19.829
846.22	19.856
846.40	19.793
846.57	19.880
846.74	19.973
846.91	19.692
847.08	19.859
847.26	19.941
847.43	19.885
847.60	19.729
847.77	19.770
847.94	20.025
848.12	20.066
848.29	20.215
848.46	20.080
848.63	20.146
848.80	20.136
848.98	20.267
849.15	20.291
849.32	20.297
849.49	20.090
849.66	20.217
849.83	20.071
850.01	20.010
850.18	19.723
850.35	19.767
850.52	19.883
850.69	20.031
850.86	19.855
851.04	19.652
851.21	19.679
851.38	19.775
851.55	19.520
851.72	19.167
851.89	19.194
852.06	19.230
852.24	19.141
852.41	19.156
852.58	18.945
852.75	18.807
852.92	19.046
853.09	19.039
853.26	19.170
853.44	19.547
853.61	19.672
853.78	19.446
853.95	19.644
854.12	19.552
854.29	19.686
854.46	19.812
854.64	19.778
854.81	19.780
854.98	19.838
855.15	19.768
855.32	19.461
855.49	19.849
855.66	20.247
855.83	20.420
856.00	20.747
856.18	20.323
856.35	20.104
856.52	20.189
856.69	20.390
856.86	20.121
857.03	20.291
857.20	20.423
857.37	20.418
857.54	20.151
857.71	19.800
857.89	19.691
858.06	19.788
858.23	19.971
858.40	19.631
858.57	19.514
858.74	19.638
858.91	19.315
859.08	19.141
859.25	19.044
859.42	19.197
859.59	19.360
859.76	19.224
859.94	19.483
860.11	19.550
860.28	20.187
860.45	20.129
860.62	20.171
860.79	20.444
860.96	20.421
861.13	20.154
861.30	19.922
861.47	19.804
861.64	20.349
861.81	19.787
861.98	19.712
862.15	19.144
862.32	19.147
862.49	19.117
862.66	19.362
862.83	19.210
863.01	19.566
863.18	19.640
863.35	19.763
863.52	19.565
863.69	19.770
863.86	19.796
864.03	19.982
864.20	20.166
864.37	20.145
864.54	19.915
864.71	20.729
864.88	20.599
865.05	20.613
865.22	20.537
865.39	20.732
865.56	21.102
865.73	21.330
865.90	21.433
866.07	21.216
866.24	21.173
866.41	21.479
866.58	20.984
866.75	21.123
866.92	21.278
867.09	21.098
867.26	20.870
867.43	20.534
867.60	20.353
867.77	20.360
867.94	20.463
868.11	20.667
868.28	20.492
868.45	20.470
868.62	20.502
868.79	20.450
868.96	20.698
869.13	20.866
869.30	20.970
869.47	20.937
869.64	20.804
869.81	20.768
869.98	20.867
870.15	20.839
870.32	20.784
870.49	20.370
870.66	20.568
870.83	20.334
871.00	20.227
871.16	20.298
871.33	20.462
871.50	20.541
871.67	20.951
871.84	20.699
872.01	20.853
872.18	21.192
872.35	21.646
872.52	21.522
872.69	21.580
872.86	21.462
873.03	21.529
873.20	21.566
873.37	21.414
873.54	21.242
873.71	21.342
873.88	21.247
874.05	21.270
874.21	21.226
874.38	21.047
874.55	21.122
874.72	21.042
874.89	20.961
875.06	20.998
875.23	21.364
875.40	21.378
875.57	21.655
875.74	21.708
875.91	21.686
876.08	21.561
876.24	21.786
876.41	21.741
876.58	22.055
876.75	22.122
876.92	22.221
877.09	22.107
877.26	22.037
877.43	21.805
877.60	21.899
877.77	21.840
877.93	21.933
878.10	21.999
878.27	22.081
878.44	21.981
878.61	22.103
878.78	22.027
878.95	22.035
879.12	22.096
879.28	22.227
879.45	22.323
879.62	22.373
879.79	22.333
879.96	22.716
880.13	22.717
880.30	22.865
880.47	22.839
880.63	23.035
880.80	23.159
880.97	23.374
881.14	23.435
881.31	23.407
881.48	23.701
881.65	24.142
881.81	24.260
881.98	24.542
882.15	24.732
882.32	24.933
882.49	24.928
882.66	24.931
882.82	24.789
882.99	24.683
883.16	24.582
883.33	24.456
883.50	24.299
883.67	24.209
883.83	24.123
884.00	24.009
884.17	23.883
884.34	23.766
884.51	23.639
884.68	23.535
884.84	23.459
885.01	23.390
885.18	23.337
885.35	23.298
885.52	23.200
885.68	23.152
885.85	23.107
886.02	23.297
886.19	22.486
886.36	22.534
886.53	23.661
886.69	23.032
>>>>>End Spectral Data<<<<<
