OOIBase32 Version 2.0.6.5 Data File
++++++++++++++++++++++++++++++++++++
Date: 03-24-2011, 10:55:21
User: Valued Ocean Optics Customer
Spectrometer Serial Number: USB4C01507
Spectrometer Channel: Master
Integration Time (msec): 46
Spectra Averaged: 30
Boxcar Smoothing: 5
Correct for Electrical Dark: Enabled
Time Normalized: Disabled
Dual-beam Reference: Disabled
Reference Channel: Master
Temperature: Not acquired
Spectrometer Type: S4000
ADC Type: USB4000
Number of Pixels in File: 3648
Graph Title: 
>>>>>Begin Spectral Data<<<<<
179.17	1252.057
179.39	2982.636
179.60	50.403
179.82	-134.053
180.03	443.614
180.24	78.149
180.46	71.757
180.67	-287.683
180.89	72.100
181.10	-173.419
181.31	254.821
181.53	-1.409
181.74	108.877
181.96	128.210
182.17	110.515
182.39	40.363
182.60	116.745
182.81	226.003
183.03	72.100
183.24	-25.604
183.46	11.004
183.67	10.896
183.88	1.414
184.10	15.904
184.31	17.064
184.53	9.680
184.74	-6.259
184.96	3.825
185.17	-3.691
185.38	-8.568
185.60	1.699
185.81	-1.483
186.03	-0.916
186.24	-0.971
186.45	-0.835
186.67	-4.790
186.88	3.227
187.10	8.671
187.31	7.191
187.52	6.045
187.74	11.019
187.95	7.791
188.17	6.263
188.38	6.011
188.59	3.013
188.81	-1.819
189.02	6.835
189.24	10.602
189.45	13.570
189.66	10.840
189.88	6.598
190.09	4.196
190.30	8.669
190.52	14.410
190.73	19.124
190.95	22.413
191.16	30.843
191.37	27.169
191.59	21.096
191.80	21.410
192.02	27.254
192.23	33.415
192.44	31.968
192.66	24.450
192.87	13.054
193.08	8.986
193.30	10.377
193.51	4.554
193.73	6.867
193.94	7.409
194.15	8.289
194.37	6.518
194.58	4.227
194.79	-1.347
195.01	0.809
195.22	4.161
195.44	4.543
195.65	-1.207
195.86	-0.751
196.08	-9.113
196.29	-6.900
196.50	-10.076
196.72	-2.221
196.93	0.542
197.14	2.235
197.36	1.773
197.57	1.539
197.79	5.642
198.00	9.899
198.21	10.833
198.43	17.629
198.64	16.410
198.85	19.822
199.07	18.491
199.28	14.913
199.49	14.332
199.71	14.505
199.92	20.270
200.13	18.954
200.35	21.789
200.56	10.729
200.78	8.655
200.99	7.184
201.20	7.447
201.42	0.323
201.63	-6.448
201.84	-4.527
202.06	-5.802
202.27	-6.608
202.48	-9.391
202.70	-17.062
202.91	-9.001
203.12	-12.962
203.34	-15.454
203.55	-15.746
203.76	-16.561
203.98	-6.317
204.19	-3.598
204.40	-2.646
204.62	-4.028
204.83	-7.127
205.04	-2.552
205.26	-2.521
205.47	-1.309
205.68	-0.022
205.90	-2.862
206.11	-2.324
206.32	-6.431
206.54	-7.409
206.75	-6.166
206.96	-7.350
207.18	-2.729
207.39	-1.129
207.60	3.699
207.82	3.479
208.03	6.406
208.24	10.567
208.45	12.396
208.67	10.892
208.88	9.481
209.09	5.339
209.31	3.462
209.52	-0.717
209.73	-0.541
209.95	0.418
210.16	2.953
210.37	-0.233
210.59	0.541
210.80	4.275
211.01	7.258
211.23	8.653
211.44	9.733
211.65	10.801
211.86	14.233
212.08	12.527
212.29	9.617
212.50	7.911
212.72	8.726
212.93	5.109
213.14	2.265
213.36	0.589
213.57	-0.682
213.78	1.156
213.99	3.948
214.21	7.230
214.42	7.508
214.63	7.982
214.85	6.620
215.06	7.859
215.27	10.368
215.49	9.522
215.70	9.349
215.91	9.728
216.12	8.413
216.34	8.728
216.55	4.299
216.76	4.092
216.98	0.761
217.19	3.794
217.40	5.403
217.61	7.778
217.83	9.956
218.04	10.055
218.25	9.956
218.47	11.702
218.68	10.089
218.89	11.483
219.10	11.664
219.32	10.842
219.53	12.300
219.74	12.116
219.95	8.517
220.17	7.212
220.38	6.654
220.59	4.991
220.81	4.004
221.02	5.379
221.23	4.223
221.44	3.778
221.66	5.708
221.87	4.498
222.08	4.656
222.29	6.247
222.51	5.846
222.72	6.366
222.93	6.897
223.14	7.640
223.36	6.810
223.57	6.761
223.78	7.437
223.99	6.903
224.21	7.245
224.42	5.966
224.63	4.744
224.84	4.209
225.06	4.946
225.27	5.186
225.48	4.476
225.69	4.916
225.91	5.251
226.12	4.629
226.33	5.267
226.54	4.596
226.76	4.819
226.97	5.024
227.18	5.112
227.39	4.778
227.61	4.938
227.82	4.939
228.03	4.814
228.24	4.764
228.46	4.780
228.67	4.737
228.88	4.701
229.09	4.596
229.31	4.575
229.52	4.584
229.73	4.624
229.94	4.518
230.16	4.634
230.37	4.730
230.58	4.684
230.79	4.555
231.00	4.534
231.22	4.855
231.43	5.083
231.64	5.343
231.85	5.236
232.07	5.191
232.28	4.992
232.49	4.714
232.70	4.526
232.91	4.667
233.13	5.062
233.34	5.015
233.55	5.196
233.76	4.979
233.98	4.670
234.19	4.557
234.40	4.575
234.61	4.696
234.82	4.615
235.04	4.370
235.25	4.505
235.46	4.348
235.67	4.140
235.88	4.112
236.10	4.409
236.31	4.230
236.52	4.327
236.73	4.774
236.94	4.787
237.16	4.907
237.37	5.385
237.58	5.246
237.79	5.297
238.01	5.120
238.22	4.996
238.43	4.960
238.64	5.400
238.85	5.255
239.06	4.872
239.28	4.603
239.49	4.730
239.70	4.723
239.91	4.479
240.12	4.548
240.34	4.484
240.55	4.553
240.76	4.500
240.97	4.443
241.18	4.487
241.40	4.435
241.61	4.516
241.82	4.469
242.03	4.399
242.24	4.368
242.45	4.245
242.67	4.372
242.88	4.211
243.09	4.093
243.30	3.926
243.51	4.053
243.73	4.056
243.94	3.975
244.15	3.911
244.36	4.019
244.57	4.264
244.78	4.420
245.00	4.234
245.21	4.239
245.42	4.197
245.63	4.180
245.84	4.053
246.05	4.064
246.27	4.081
246.48	4.038
246.69	3.928
246.90	3.927
247.11	3.837
247.32	3.819
247.54	3.868
247.75	3.866
247.96	3.875
248.17	3.925
248.38	3.904
248.59	3.887
248.81	3.906
249.02	4.071
249.23	3.820
249.44	3.844
249.65	3.934
249.86	3.511
250.07	3.631
250.29	3.613
250.50	3.323
250.71	3.158
250.92	3.086
251.13	3.147
251.34	3.211
251.55	3.403
251.77	3.466
251.98	3.554
252.19	3.709
252.40	3.586
252.61	3.486
252.82	3.491
253.03	3.653
253.25	3.706
253.46	3.647
253.67	3.560
253.88	3.376
254.09	3.441
254.30	3.167
254.51	3.148
254.73	3.032
254.94	3.233
255.15	3.469
255.36	3.348
255.57	3.250
255.78	3.446
255.99	3.339
256.20	3.489
256.42	3.420
256.63	3.489
256.84	3.503
257.05	3.549
257.26	3.425
257.47	3.292
257.68	3.323
257.89	3.323
258.10	3.361
258.32	3.393
258.53	3.328
258.74	3.263
258.95	3.258
259.16	3.249
259.37	3.280
259.58	3.256
259.79	3.313
260.00	3.293
260.22	3.326
260.43	3.272
260.64	3.251
260.85	3.283
261.06	3.336
261.27	3.377
261.48	3.400
261.69	3.240
261.90	3.278
262.12	3.049
262.33	3.054
262.54	2.990
262.75	2.953
262.96	2.806
263.17	2.837
263.38	2.777
263.59	2.806
263.80	2.824
264.01	2.983
264.22	2.901
264.44	3.092
264.65	2.980
264.86	3.043
265.07	3.005
265.28	2.976
265.49	2.925
265.70	3.011
265.91	2.880
266.12	2.863
266.33	2.807
266.54	2.855
266.75	2.840
266.97	2.962
267.18	2.964
267.39	2.981
267.60	3.054
267.81	3.039
268.02	2.963
268.23	3.072
268.44	3.037
268.65	3.124
268.86	3.174
269.07	3.202
269.28	3.114
269.49	3.086
269.70	3.141
269.92	3.105
270.13	3.103
270.34	3.123
270.55	3.047
270.76	3.064
270.97	3.107
271.18	3.178
271.39	3.071
271.60	3.098
271.81	3.089
272.02	3.028
272.23	3.142
272.44	3.213
272.65	3.242
272.86	3.244
273.07	3.239
273.28	3.226
273.49	3.062
273.71	3.171
273.92	3.200
274.13	3.120
274.34	3.080
274.55	3.042
274.76	2.802
274.97	2.770
275.18	2.641
275.39	2.663
275.60	2.705
275.81	2.830
276.02	2.655
276.23	2.642
276.44	2.684
276.65	2.703
276.86	2.626
277.07	2.807
277.28	2.821
277.49	2.961
277.70	2.880
277.91	2.837
278.12	2.673
278.33	2.737
278.54	2.766
278.75	2.693
278.96	2.620
279.17	2.545
279.39	2.454
279.60	2.469
279.81	2.393
280.02	2.342
280.23	2.398
280.44	2.473
280.65	2.609
280.86	2.513
281.07	2.584
281.28	2.734
281.49	2.794
281.70	2.921
281.91	2.883
282.12	2.881
282.33	3.063
282.54	2.930
282.75	3.002
282.96	3.030
283.17	3.132
283.38	3.128
283.59	3.030
283.80	2.917
284.01	2.840
284.22	2.871
284.43	2.953
284.64	2.829
284.85	2.832
285.06	2.788
285.27	2.740
285.48	2.695
285.69	2.708
285.90	2.804
286.11	2.952
286.32	2.954
286.53	2.915
286.74	2.930
286.95	2.991
287.16	3.012
287.37	2.944
287.58	2.898
287.79	2.848
288.00	2.786
288.21	2.592
288.42	2.522
288.63	2.580
288.84	2.623
289.05	2.606
289.26	2.538
289.47	2.562
289.68	2.574
289.89	2.590
290.10	2.590
290.31	2.530
290.51	2.613
290.72	2.619
290.93	2.552
291.14	2.530
291.35	2.396
291.56	2.399
291.77	2.319
291.98	2.344
292.19	2.344
292.40	2.337
292.61	2.414
292.82	2.400
293.03	2.385
293.24	2.382
293.45	2.442
293.66	2.544
293.87	2.691
294.08	2.688
294.29	2.784
294.50	2.679
294.71	2.708
294.92	2.744
295.13	2.736
295.34	2.697
295.55	2.717
295.76	2.596
295.96	2.543
296.17	2.469
296.38	2.548
296.59	2.499
296.80	2.512
297.01	2.533
297.22	2.551
297.43	2.559
297.64	2.549
297.85	2.521
298.06	2.492
298.27	2.507
298.48	2.456
298.69	2.365
298.90	2.339
299.11	2.393
299.32	2.408
299.53	2.430
299.73	2.408
299.94	2.532
300.15	2.520
300.36	2.578
300.57	2.607
300.78	2.620
300.99	2.663
301.20	2.645
301.41	2.640
301.62	2.668
301.83	2.631
302.04	2.594
302.25	2.496
302.45	2.487
302.66	2.457
302.87	2.446
303.08	2.490
303.29	2.519
303.50	2.592
303.71	2.600
303.92	2.511
304.13	2.475
304.34	2.493
304.55	2.498
304.76	2.556
304.96	2.566
305.17	2.530
305.38	2.516
305.59	2.486
305.80	2.414
306.01	2.401
306.22	2.362
306.43	2.348
306.64	2.353
306.85	2.338
307.06	2.316
307.26	2.325
307.47	2.287
307.68	2.330
307.89	2.344
308.10	2.331
308.31	2.289
308.52	2.350
308.73	2.363
308.94	2.387
309.14	2.408
309.35	2.439
309.56	2.483
309.77	2.488
309.98	2.494
310.19	2.470
310.40	2.439
310.61	2.444
310.82	2.410
311.02	2.408
311.23	2.369
311.44	2.351
311.65	2.290
311.86	2.223
312.07	2.250
312.28	2.159
312.49	2.115
312.69	2.140
312.90	2.111
313.11	2.117
313.32	2.100
313.53	2.123
313.74	2.060
313.95	2.033
314.16	2.075
314.36	2.058
314.57	2.077
314.78	2.090
314.99	2.117
315.20	2.198
315.41	2.231
315.62	2.202
315.82	2.198
316.03	2.244
316.24	2.320
316.45	2.336
316.66	2.350
316.87	2.392
317.08	2.409
317.28	2.408
317.49	2.397
317.70	2.359
317.91	2.367
318.12	2.357
318.33	2.359
318.54	2.272
318.74	2.266
318.95	2.253
319.16	2.293
319.37	2.331
319.58	2.317
319.79	2.184
319.99	2.186
320.20	2.185
320.41	2.211
320.62	2.218
320.83	2.270
321.04	2.242
321.24	2.241
321.45	2.237
321.66	2.179
321.87	2.222
322.08	2.285
322.29	2.267
322.49	2.298
322.70	2.273
322.91	2.297
323.12	2.310
323.33	2.346
323.54	2.309
323.74	2.275
323.95	2.267
324.16	2.287
324.37	2.294
324.58	2.345
324.79	2.332
324.99	2.290
325.20	2.298
325.41	2.332
325.62	2.332
325.83	2.337
326.03	2.269
326.24	2.303
326.45	2.243
326.66	2.233
326.87	2.221
327.07	2.171
327.28	2.215
327.49	2.180
327.70	2.108
327.91	2.070
328.11	2.075
328.32	2.126
328.53	2.155
328.74	2.164
328.95	2.191
329.15	2.150
329.36	2.215
329.57	2.154
329.78	2.160
329.99	2.176
330.19	2.166
330.40	2.162
330.61	2.130
330.82	2.094
331.03	2.053
331.23	2.032
331.44	2.060
331.65	2.048
331.86	2.142
332.07	2.126
332.27	2.135
332.48	2.121
332.69	2.181
332.90	2.201
333.10	2.223
333.31	2.260
333.52	2.254
333.73	2.229
333.94	2.198
334.14	2.150
334.35	2.165
334.56	2.153
334.77	2.147
334.97	2.081
335.18	2.046
335.39	2.024
335.60	2.017
335.80	1.995
336.01	2.027
336.22	1.987
336.43	2.004
336.64	2.019
336.84	2.017
337.05	2.011
337.26	2.018
337.47	2.046
337.67	2.051
337.88	1.996
338.09	1.993
338.30	2.005
338.50	2.091
338.71	2.091
338.92	2.075
339.13	2.129
339.33	2.148
339.54	2.126
339.75	2.128
339.96	2.140
340.16	2.164
340.37	2.167
340.58	2.118
340.79	2.125
340.99	2.109
341.20	2.057
341.41	1.993
341.62	2.001
341.82	2.018
342.03	1.993
342.24	1.943
342.44	1.967
342.65	1.989
342.86	1.981
343.07	1.946
343.27	1.955
343.48	1.980
343.69	1.986
343.90	2.012
344.10	1.991
344.31	1.979
344.52	2.028
344.72	2.008
344.93	1.993
345.14	2.030
345.35	2.010
345.55	2.013
345.76	2.011
345.97	2.012
346.18	1.984
346.38	2.007
346.59	2.024
346.80	2.006
347.00	1.992
347.21	2.006
347.42	2.002
347.62	2.016
347.83	1.993
348.04	1.979
348.25	1.954
348.45	1.952
348.66	1.948
348.87	1.937
349.07	1.922
349.28	1.944
349.49	1.928
349.70	1.929
349.90	1.919
350.11	1.940
350.32	1.939
350.52	1.928
350.73	1.926
350.94	1.935
351.14	1.946
351.35	1.969
351.56	1.979
351.76	1.991
351.97	1.951
352.18	1.948
352.39	1.929
352.59	1.965
352.80	1.983
353.01	1.997
353.21	1.959
353.42	1.941
353.63	1.899
353.83	1.891
354.04	1.896
354.25	1.921
354.45	1.915
354.66	1.921
354.87	1.891
355.07	1.917
355.28	1.933
355.49	1.954
355.69	1.959
355.90	1.955
356.11	1.966
356.31	1.982
356.52	1.988
356.73	2.016
356.93	2.002
357.14	2.012
357.35	2.039
357.55	2.058
357.76	2.016
357.97	2.002
358.17	2.040
358.38	2.035
358.59	2.016
358.79	2.000
359.00	1.963
359.21	1.971
359.41	1.941
359.62	1.897
359.83	1.852
360.03	1.891
360.24	1.949
360.44	1.964
360.65	1.944
360.86	1.957
361.06	1.962
361.27	1.962
361.48	1.944
361.68	1.990
361.89	2.000
362.10	2.012
362.30	2.005
362.51	1.955
362.72	1.947
362.92	1.960
363.13	1.916
363.33	1.900
363.54	1.913
363.75	1.928
363.95	1.892
364.16	1.901
364.37	1.914
364.57	1.934
364.78	1.954
364.98	1.915
365.19	1.906
365.40	1.927
365.60	1.910
365.81	1.930
366.02	1.930
366.22	1.927
366.43	1.907
366.63	1.900
366.84	1.844
367.05	1.851
367.25	1.856
367.46	1.813
367.66	1.818
367.87	1.876
368.08	1.849
368.28	1.852
368.49	1.875
368.69	1.835
368.90	1.825
369.11	1.871
369.31	1.856
369.52	1.889
369.72	1.927
369.93	1.914
370.14	1.892
370.34	1.879
370.55	1.883
370.75	1.879
370.96	1.903
371.17	1.919
371.37	1.893
371.58	1.886
371.78	1.877
371.99	1.875
372.20	1.882
372.40	1.845
372.61	1.857
372.81	1.857
373.02	1.867
373.23	1.852
373.43	1.827
373.64	1.836
373.84	1.842
374.05	1.849
374.25	1.873
374.46	1.847
374.67	1.870
374.87	1.908
375.08	1.878
375.28	1.868
375.49	1.914
375.69	1.933
375.90	1.918
376.11	1.930
376.31	1.901
376.52	1.875
376.72	1.898
376.93	1.910
377.13	1.868
377.34	1.891
377.55	1.911
377.75	1.877
377.96	1.830
378.16	1.854
378.37	1.868
378.57	1.892
378.78	1.905
378.98	1.898
379.19	1.910
379.40	1.886
379.60	1.850
379.81	1.820
380.01	1.817
380.22	1.827
380.42	1.815
380.63	1.768
380.83	1.739
381.04	1.716
381.24	1.717
381.45	1.687
381.66	1.725
381.86	1.758
382.07	1.745
382.27	1.766
382.48	1.752
382.68	1.764
382.89	1.796
383.09	1.809
383.30	1.831
383.50	1.823
383.71	1.806
383.91	1.797
384.12	1.798
384.32	1.825
384.53	1.806
384.73	1.819
384.94	1.825
385.15	1.805
385.35	1.796
385.56	1.793
385.76	1.776
385.97	1.808
386.17	1.810
386.38	1.814
386.58	1.795
386.79	1.826
386.99	1.843
387.20	1.832
387.40	1.852
387.61	1.875
387.81	1.870
388.02	1.894
388.22	1.866
388.43	1.860
388.63	1.849
388.84	1.870
389.04	1.863
389.25	1.869
389.45	1.862
389.66	1.865
389.86	1.849
390.07	1.837
390.27	1.834
390.48	1.849
390.68	1.855
390.89	1.875
391.09	1.866
391.30	1.854
391.50	1.849
391.71	1.855
391.91	1.831
392.12	1.860
392.32	1.881
392.53	1.893
392.73	1.880
392.94	1.882
393.14	1.869
393.35	1.883
393.55	1.882
393.75	1.871
393.96	1.862
394.16	1.873
394.37	1.839
394.57	1.843
394.78	1.859
394.98	1.878
395.19	1.854
395.39	1.851
395.60	1.838
395.80	1.853
396.01	1.841
396.21	1.860
396.42	1.849
396.62	1.851
396.83	1.828
397.03	1.816
397.23	1.810
397.44	1.836
397.64	1.845
397.85	1.854
398.05	1.850
398.26	1.850
398.46	1.836
398.67	1.851
398.87	1.871
399.08	1.881
399.28	1.867
399.48	1.877
399.69	1.874
399.89	1.873
400.10	1.868
400.30	1.859
400.51	1.880
400.71	1.879
400.92	1.879
401.12	1.867
401.32	1.854
401.53	1.844
401.73	1.833
401.94	1.851
402.14	1.847
402.35	1.871
402.55	1.871
402.75	1.866
402.96	1.869
403.16	1.869
403.37	1.863
403.57	1.888
403.78	1.909
403.98	1.905
404.18	1.886
404.39	1.877
404.59	1.855
404.80	1.866
405.00	1.855
405.21	1.872
405.41	1.866
405.61	1.869
405.82	1.871
406.02	1.872
406.23	1.887
406.43	1.900
406.63	1.908
406.84	1.919
407.04	1.918
407.25	1.936
407.45	1.939
407.65	1.942
407.86	1.927
408.06	1.891
408.27	1.877
408.47	1.870
408.67	1.855
408.88	1.856
409.08	1.820
409.29	1.825
409.49	1.819
409.69	1.796
409.90	1.813
410.10	1.839
410.31	1.859
410.51	1.871
410.71	1.877
410.92	1.860
411.12	1.849
411.33	1.858
411.53	1.848
411.73	1.842
411.94	1.874
412.14	1.848
412.34	1.837
412.55	1.827
412.75	1.811
412.96	1.798
413.16	1.812
413.36	1.823
413.57	1.829
413.77	1.819
413.97	1.858
414.18	1.858
414.38	1.871
414.59	1.897
414.79	1.904
414.99	1.900
415.20	1.896
415.40	1.904
415.60	1.904
415.81	1.908
416.01	1.917
416.21	1.889
416.42	1.884
416.62	1.893
416.83	1.870
417.03	1.861
417.23	1.853
417.44	1.855
417.64	1.848
417.84	1.841
418.05	1.847
418.25	1.850
418.45	1.843
418.66	1.839
418.86	1.814
419.06	1.828
419.27	1.836
419.47	1.855
419.67	1.859
419.88	1.869
420.08	1.862
420.28	1.856
420.49	1.860
420.69	1.864
420.89	1.859
421.10	1.873
421.30	1.862
421.50	1.860
421.71	1.847
421.91	1.850
422.11	1.851
422.32	1.859
422.52	1.859
422.72	1.868
422.93	1.878
423.13	1.891
423.33	1.901
423.54	1.905
423.74	1.909
423.94	1.918
424.15	1.909
424.35	1.908
424.55	1.913
424.76	1.917
424.96	1.912
425.16	1.907
425.36	1.894
425.57	1.883
425.77	1.872
425.97	1.886
426.18	1.891
426.38	1.894
426.58	1.882
426.79	1.883
426.99	1.881
427.19	1.877
427.39	1.865
427.60	1.863
427.80	1.868
428.00	1.893
428.21	1.877
428.41	1.879
428.61	1.896
428.82	1.897
429.02	1.888
429.22	1.901
429.42	1.894
429.63	1.909
429.83	1.915
430.03	1.900
430.24	1.889
430.44	1.899
430.64	1.886
430.84	1.885
431.05	1.886
431.25	1.894
431.45	1.879
431.65	1.873
431.86	1.877
432.06	1.888
432.26	1.907
432.47	1.916
432.67	1.913
432.87	1.927
433.07	1.925
433.28	1.941
433.48	1.951
433.68	1.945
433.88	1.957
434.09	1.964
434.29	1.959
434.49	1.948
434.69	1.934
434.90	1.918
435.10	1.907
435.30	1.910
435.51	1.911
435.71	1.905
435.91	1.929
436.11	1.922
436.32	1.907
436.52	1.914
436.72	1.934
436.92	1.944
437.13	1.953
437.33	1.958
437.53	1.942
437.73	1.928
437.93	1.932
438.14	1.935
438.34	1.936
438.54	1.945
438.74	1.943
438.95	1.932
439.15	1.945
439.35	1.951
439.55	1.946
439.76	1.961
439.96	1.979
440.16	1.981
440.36	1.979
440.56	1.974
440.77	1.961
440.97	1.961
441.17	1.967
441.37	1.956
441.58	1.967
441.78	1.989
441.98	1.982
442.18	1.968
442.38	1.955
442.59	1.947
442.79	1.957
442.99	1.987
443.19	1.982
443.40	1.999
443.60	2.007
443.80	1.996
444.00	1.978
444.20	1.987
444.41	1.972
444.61	1.985
444.81	1.991
445.01	1.997
445.21	1.983
445.42	1.992
445.62	1.978
445.82	1.972
446.02	1.975
446.22	1.967
446.43	1.959
446.63	1.962
446.83	1.965
447.03	1.959
447.23	1.961
447.44	1.960
447.64	1.954
447.84	1.953
448.04	1.958
448.24	1.950
448.44	1.965
448.65	1.968
448.85	1.979
449.05	1.977
449.25	1.974
449.45	1.983
449.65	1.990
449.86	2.000
450.06	2.014
450.26	2.017
450.46	2.024
450.66	2.023
450.87	2.035
451.07	2.043
451.27	2.032
451.47	2.055
451.67	2.050
451.87	2.058
452.08	2.044
452.28	2.029
452.48	2.022
452.68	2.036
452.88	2.034
453.08	2.021
453.28	2.021
453.49	2.035
453.69	2.028
453.89	2.018
454.09	2.011
454.29	2.024
454.49	2.036
454.70	2.041
454.90	2.021
455.10	2.018
455.30	2.025
455.50	2.037
455.70	2.022
455.90	2.027
456.11	2.028
456.31	2.029
456.51	2.026
456.71	2.018
456.91	2.035
457.11	2.052
457.31	2.061
457.51	2.063
457.72	2.052
457.92	2.062
458.12	2.046
458.32	2.050
458.52	2.064
458.72	2.070
458.92	2.067
459.12	2.057
459.33	2.052
459.53	2.062
459.73	2.080
459.93	2.077
460.13	2.079
460.33	2.094
460.53	2.085
460.73	2.060
460.93	2.059
461.14	2.070
461.34	2.078
461.54	2.077
461.74	2.068
461.94	2.058
462.14	2.062
462.34	2.063
462.54	2.053
462.74	2.056
462.95	2.077
463.15	2.083
463.35	2.077
463.55	2.071
463.75	2.076
463.95	2.081
464.15	2.078
464.35	2.088
464.55	2.077
464.75	2.080
464.95	2.099
465.16	2.101
465.36	2.088
465.56	2.085
465.76	2.102
465.96	2.106
466.16	2.113
466.36	2.111
466.56	2.092
466.76	2.095
466.96	2.110
467.16	2.098
467.36	2.091
467.57	2.099
467.77	2.108
467.97	2.095
468.17	2.092
468.37	2.073
468.57	2.083
468.77	2.097
468.97	2.098
469.17	2.084
469.37	2.094
469.57	2.103
469.77	2.115
469.97	2.116
470.17	2.123
470.37	2.125
470.57	2.135
470.78	2.119
470.98	2.124
471.18	2.133
471.38	2.136
471.58	2.137
471.78	2.144
471.98	2.134
472.18	2.149
472.38	2.150
472.58	2.165
472.78	2.187
472.98	2.205
473.18	2.204
473.38	2.207
473.58	2.211
473.78	2.213
473.98	2.214
474.18	2.231
474.38	2.217
474.58	2.224
474.78	2.220
474.98	2.217
475.18	2.228
475.38	2.237
475.58	2.247
475.79	2.242
475.99	2.245
476.19	2.257
476.39	2.249
476.59	2.251
476.79	2.255
476.99	2.252
477.19	2.252
477.39	2.235
477.59	2.236
477.79	2.228
477.99	2.230
478.19	2.223
478.39	2.222
478.59	2.227
478.79	2.232
478.99	2.235
479.19	2.239
479.39	2.242
479.59	2.263
479.79	2.264
479.99	2.276
480.19	2.285
480.39	2.291
480.59	2.288
480.79	2.291
480.99	2.298
481.19	2.295
481.39	2.296
481.59	2.295
481.79	2.296
481.99	2.297
482.19	2.302
482.39	2.312
482.59	2.319
482.79	2.322
482.99	2.332
483.19	2.357
483.39	2.402
483.59	2.436
483.79	2.444
483.99	2.432
484.19	2.422
484.39	2.418
484.58	2.418
484.78	2.422
484.98	2.425
485.18	2.427
485.38	2.420
485.58	2.388
485.78	2.353
485.98	2.343
486.18	2.352
486.38	2.370
486.58	2.383
486.78	2.386
486.98	2.388
487.18	2.399
487.38	2.405
487.58	2.412
487.78	2.420
487.98	2.428
488.18	2.429
488.38	2.427
488.58	2.422
488.78	2.419
488.98	2.417
489.18	2.418
489.37	2.415
489.57	2.414
489.77	2.408
489.97	2.407
490.17	2.410
490.37	2.406
490.57	2.417
490.77	2.433
490.97	2.443
491.17	2.454
491.37	2.463
491.57	2.465
491.77	2.466
491.97	2.474
492.17	2.473
492.37	2.474
492.56	2.480
492.76	2.484
492.96	2.482
493.16	2.486
493.36	2.490
493.56	2.486
493.76	2.490
493.96	2.497
494.16	2.495
494.36	2.499
494.56	2.504
494.76	2.509
494.95	2.517
495.15	2.525
495.35	2.520
495.55	2.521
495.75	2.536
495.95	2.545
496.15	2.554
496.35	2.558
496.55	2.565
496.75	2.572
496.95	2.581
497.14	2.587
497.34	2.598
497.54	2.608
497.74	2.614
497.94	2.622
498.14	2.626
498.34	2.632
498.54	2.637
498.74	2.636
498.93	2.649
499.13	2.654
499.33	2.657
499.53	2.662
499.73	2.676
499.93	2.684
500.13	2.686
500.33	2.696
500.53	2.703
500.72	2.715
500.92	2.728
501.12	2.726
501.32	2.727
501.52	2.727
501.72	2.727
501.92	2.719
502.12	2.715
502.31	2.722
502.51	2.726
502.71	2.734
502.91	2.733
503.11	2.735
503.31	2.744
503.51	2.743
503.70	2.748
503.90	2.756
504.10	2.768
504.30	2.781
504.50	2.778
504.70	2.788
504.90	2.784
505.09	2.805
505.29	2.816
505.49	2.809
505.69	2.827
505.89	2.835
506.09	2.828
506.29	2.831
506.48	2.836
506.68	2.849
506.88	2.851
507.08	2.856
507.28	2.862
507.48	2.866
507.67	2.883
507.87	2.877
508.07	2.889
508.27	2.906
508.47	2.910
508.67	2.909
508.86	2.916
509.06	2.920
509.26	2.922
509.46	2.922
509.66	2.927
509.85	2.929
510.05	2.948
510.25	2.942
510.45	2.957
510.65	2.962
510.85	2.973
511.04	2.970
511.24	2.970
511.44	2.982
511.64	2.986
511.84	2.989
512.03	2.997
512.23	2.997
512.43	3.005
512.63	3.005
512.83	3.019
513.02	3.031
513.22	3.047
513.42	3.061
513.62	3.075
513.82	3.085
514.01	3.098
514.21	3.096
514.41	3.106
514.61	3.123
514.81	3.119
515.00	3.113
515.20	3.115
515.40	3.114
515.60	3.115
515.80	3.109
515.99	3.108
516.19	3.105
516.39	3.120
516.59	3.127
516.78	3.133
516.98	3.151
517.18	3.159
517.38	3.159
517.58	3.168
517.77	3.181
517.97	3.193
518.17	3.200
518.37	3.215
518.56	3.228
518.76	3.240
518.96	3.251
519.16	3.249
519.36	3.271
519.55	3.278
519.75	3.286
519.95	3.291
520.15	3.297
520.34	3.314
520.54	3.317
520.74	3.325
520.94	3.325
521.13	3.327
521.33	3.340
521.53	3.332
521.73	3.339
521.92	3.335
522.12	3.353
522.32	3.364
522.52	3.369
522.71	3.382
522.91	3.390
523.11	3.402
523.31	3.396
523.50	3.402
523.70	3.423
523.90	3.434
524.09	3.442
524.29	3.435
524.49	3.446
524.69	3.452
524.88	3.458
525.08	3.465
525.28	3.467
525.48	3.481
525.67	3.490
525.87	3.489
526.07	3.491
526.26	3.501
526.46	3.515
526.66	3.521
526.86	3.526
527.05	3.538
527.25	3.547
527.45	3.559
527.64	3.569
527.84	3.586
528.04	3.603
528.24	3.628
528.43	3.647
528.63	3.652
528.83	3.657
529.02	3.661
529.22	3.661
529.42	3.662
529.62	3.661
529.81	3.670
530.01	3.668
530.21	3.665
530.40	3.656
530.60	3.647
530.80	3.651
530.99	3.655
531.19	3.660
531.39	3.667
531.58	3.674
531.78	3.690
531.98	3.693
532.18	3.709
532.37	3.726
532.57	3.742
532.77	3.764
532.96	3.773
533.16	3.786
533.36	3.796
533.55	3.803
533.75	3.806
533.95	3.816
534.14	3.821
534.34	3.834
534.54	3.839
534.73	3.848
534.93	3.853
535.13	3.851
535.32	3.847
535.52	3.847
535.72	3.857
535.91	3.874
536.11	3.880
536.31	3.888
536.50	3.888
536.70	3.900
536.90	3.903
537.09	3.908
537.29	3.922
537.48	3.934
537.68	3.951
537.88	3.956
538.07	3.956
538.27	3.959
538.47	3.969
538.66	3.979
538.86	3.976
539.06	3.990
539.25	4.001
539.45	4.009
539.65	4.023
539.84	4.027
540.04	4.046
540.23	4.067
540.43	4.086
540.63	4.102
540.82	4.113
541.02	4.129
541.22	4.136
541.41	4.141
541.61	4.148
541.80	4.151
542.00	4.156
542.20	4.155
542.39	4.157
542.59	4.160
542.79	4.161
542.98	4.165
543.18	4.169
543.37	4.175
543.57	4.176
543.77	4.181
543.96	4.182
544.16	4.186
544.35	4.200
544.55	4.210
544.75	4.223
544.94	4.238
545.14	4.244
545.33	4.258
545.53	4.264
545.73	4.274
545.92	4.287
546.12	4.304
546.31	4.321
546.51	4.328
546.71	4.334
546.90	4.336
547.10	4.335
547.29	4.339
547.49	4.342
547.69	4.353
547.88	4.369
548.08	4.370
548.27	4.378
548.47	4.381
548.66	4.398
548.86	4.394
549.06	4.405
549.25	4.427
549.45	4.449
549.64	4.446
549.84	4.450
550.03	4.453
550.23	4.472
550.43	4.474
550.62	4.489
550.82	4.490
551.01	4.512
551.21	4.514
551.40	4.516
551.60	4.524
551.80	4.536
551.99	4.553
552.19	4.557
552.38	4.552
552.58	4.564
552.77	4.575
552.97	4.583
553.16	4.579
553.36	4.586
553.56	4.605
553.75	4.603
553.95	4.611
554.14	4.613
554.34	4.630
554.53	4.646
554.73	4.656
554.92	4.657
555.12	4.663
555.31	4.680
555.51	4.699
555.70	4.693
555.90	4.696
556.10	4.709
556.29	4.706
556.49	4.703
556.68	4.715
556.88	4.731
557.07	4.739
557.27	4.756
557.46	4.759
557.66	4.761
557.85	4.769
558.05	4.784
558.24	4.797
558.44	4.822
558.63	4.834
558.83	4.830
559.02	4.832
559.22	4.842
559.41	4.843
559.61	4.842
559.80	4.853
560.00	4.862
560.19	4.871
560.39	4.867
560.58	4.868
560.78	4.875
560.97	4.898
561.17	4.913
561.36	4.927
561.56	4.940
561.75	4.962
561.95	4.972
562.14	4.985
562.34	4.996
562.53	5.015
562.73	5.031
562.92	5.045
563.12	5.044
563.31	5.043
563.51	5.047
563.70	5.048
563.90	5.057
564.09	5.071
564.29	5.082
564.48	5.078
564.68	5.095
564.87	5.109
565.07	5.119
565.26	5.130
565.45	5.147
565.65	5.144
565.84	5.168
566.04	5.177
566.23	5.183
566.43	5.190
566.62	5.202
566.82	5.201
567.01	5.188
567.21	5.188
567.40	5.197
567.60	5.205
567.79	5.216
567.98	5.213
568.18	5.227
568.37	5.234
568.57	5.235
568.76	5.257
568.96	5.257
569.15	5.284
569.35	5.311
569.54	5.315
569.73	5.315
569.93	5.330
570.12	5.334
570.32	5.328
570.51	5.323
570.71	5.340
570.90	5.356
571.09	5.378
571.29	5.397
571.48	5.397
571.68	5.412
571.87	5.421
572.07	5.430
572.26	5.442
572.45	5.461
572.65	5.491
572.84	5.496
573.04	5.497
573.23	5.505
573.43	5.499
573.62	5.503
573.81	5.506
574.01	5.518
574.20	5.512
574.40	5.526
574.59	5.527
574.78	5.507
574.98	5.517
575.17	5.521
575.37	5.529
575.56	5.537
575.75	5.542
575.95	5.553
576.14	5.555
576.34	5.565
576.53	5.561
576.72	5.570
576.92	5.597
577.11	5.608
577.31	5.616
577.50	5.615
577.69	5.640
577.89	5.657
578.08	5.658
578.28	5.670
578.47	5.676
578.66	5.693
578.86	5.700
579.05	5.710
579.24	5.713
579.44	5.724
579.63	5.730
579.83	5.716
580.02	5.729
580.21	5.754
580.41	5.759
580.60	5.781
580.79	5.796
580.99	5.812
581.18	5.821
581.38	5.838
581.57	5.859
581.76	5.879
581.96	5.897
582.15	5.893
582.34	5.894
582.54	5.903
582.73	5.910
582.92	5.910
583.12	5.918
583.31	5.913
583.50	5.897
583.70	5.900
583.89	5.903
584.08	5.899
584.28	5.913
584.47	5.923
584.66	5.941
584.86	5.937
585.05	5.944
585.24	5.943
585.44	5.975
585.63	6.001
585.82	5.999
586.02	5.994
586.21	6.016
586.40	6.022
586.60	6.033
586.79	6.027
586.98	6.038
587.18	6.053
587.37	6.062
587.56	6.054
587.76	6.059
587.95	6.072
588.14	6.097
588.34	6.099
588.53	6.122
588.72	6.135
588.92	6.161
589.11	6.183
589.30	6.189
589.50	6.213
589.69	6.226
589.88	6.228
590.07	6.244
590.27	6.254
590.46	6.261
590.65	6.265
590.85	6.268
591.04	6.269
591.23	6.271
591.43	6.275
591.62	6.270
591.81	6.278
592.00	6.300
592.20	6.296
592.39	6.319
592.58	6.344
592.78	6.341
592.97	6.356
593.16	6.363
593.35	6.386
593.55	6.390
593.74	6.406
593.93	6.410
594.13	6.424
594.32	6.449
594.51	6.453
594.70	6.445
594.90	6.447
595.09	6.435
595.28	6.447
595.47	6.450
595.67	6.468
595.86	6.474
596.05	6.492
596.24	6.510
596.44	6.509
596.63	6.504
596.82	6.521
597.02	6.534
597.21	6.555
597.40	6.570
597.59	6.567
597.79	6.562
597.98	6.565
598.17	6.571
598.36	6.572
598.56	6.580
598.75	6.591
598.94	6.610
599.13	6.630
599.32	6.639
599.52	6.643
599.71	6.662
599.90	6.688
600.09	6.704
600.29	6.714
600.48	6.718
600.67	6.716
600.86	6.727
601.06	6.726
601.25	6.734
601.44	6.745
601.63	6.762
601.82	6.777
602.02	6.803
602.21	6.806
602.40	6.837
602.59	6.844
602.79	6.870
602.98	6.891
603.17	6.900
603.36	6.908
603.55	6.921
603.75	6.920
603.94	6.950
604.13	6.949
604.32	6.965
604.51	6.956
604.71	6.963
604.90	6.971
605.09	6.967
605.28	6.960
605.47	6.967
605.67	6.973
605.86	6.989
606.05	6.986
606.24	6.997
606.43	7.012
606.63	7.022
606.82	7.029
607.01	7.033
607.20	7.051
607.39	7.072
607.59	7.081
607.78	7.097
607.97	7.092
608.16	7.082
608.35	7.084
608.54	7.078
608.74	7.089
608.93	7.099
609.12	7.114
609.31	7.123
609.50	7.145
609.69	7.157
609.89	7.152
610.08	7.162
610.27	7.176
610.46	7.188
610.65	7.213
610.84	7.220
611.04	7.236
611.23	7.237
611.42	7.246
611.61	7.244
611.80	7.259
611.99	7.278
612.19	7.277
612.38	7.287
612.57	7.277
612.76	7.272
612.95	7.288
613.14	7.291
613.33	7.304
613.53	7.306
613.72	7.326
613.91	7.323
614.10	7.343
614.29	7.364
614.48	7.356
614.67	7.386
614.86	7.390
615.06	7.382
615.25	7.384
615.44	7.396
615.63	7.396
615.82	7.381
616.01	7.389
616.20	7.388
616.39	7.388
616.59	7.406
616.78	7.418
616.97	7.447
617.16	7.466
617.35	7.477
617.54	7.466
617.73	7.496
617.92	7.529
618.12	7.529
618.31	7.531
618.50	7.553
618.69	7.562
618.88	7.559
619.07	7.553
619.26	7.561
619.45	7.588
619.64	7.610
619.83	7.624
620.03	7.627
620.22	7.658
620.41	7.664
620.60	7.675
620.79	7.692
620.98	7.695
621.17	7.706
621.36	7.723
621.55	7.727
621.74	7.744
621.93	7.738
622.12	7.754
622.32	7.747
622.51	7.758
622.70	7.767
622.89	7.766
623.08	7.780
623.27	7.792
623.46	7.800
623.65	7.797
623.84	7.801
624.03	7.816
624.22	7.823
624.41	7.836
624.60	7.850
624.79	7.854
624.99	7.871
625.18	7.874
625.37	7.869
625.56	7.863
625.75	7.889
625.94	7.898
626.13	7.914
626.32	7.915
626.51	7.944
626.70	7.949
626.89	7.952
627.08	7.977
627.27	7.990
627.46	8.000
627.65	8.022
627.84	8.026
628.03	8.032
628.22	8.025
628.41	8.054
628.60	8.054
628.79	8.071
628.98	8.073
629.17	8.047
629.37	8.063
629.56	8.075
629.75	8.085
629.94	8.086
630.13	8.104
630.32	8.125
630.51	8.111
630.70	8.117
630.89	8.117
631.08	8.145
631.27	8.160
631.46	8.168
631.65	8.190
631.84	8.197
632.03	8.197
632.22	8.192
632.41	8.201
632.60	8.213
632.79	8.221
632.98	8.231
633.17	8.243
633.36	8.267
633.55	8.287
633.74	8.302
633.93	8.306
634.12	8.333
634.31	8.358
634.50	8.375
634.69	8.396
634.88	8.408
635.07	8.424
635.26	8.414
635.45	8.415
635.64	8.418
635.83	8.433
636.02	8.462
636.21	8.473
636.40	8.476
636.59	8.471
636.78	8.465
636.96	8.473
637.15	8.471
637.34	8.492
637.53	8.504
637.72	8.508
637.91	8.491
638.10	8.479
638.29	8.500
638.48	8.525
638.67	8.542
638.86	8.550
639.05	8.549
639.24	8.573
639.43	8.604
639.62	8.625
639.81	8.643
640.00	8.656
640.19	8.684
640.38	8.681
640.57	8.681
640.76	8.696
640.95	8.711
641.14	8.723
641.32	8.734
641.51	8.729
641.70	8.735
641.89	8.742
642.08	8.777
642.27	8.767
642.46	8.775
642.65	8.765
642.84	8.774
643.03	8.783
643.22	8.806
643.41	8.819
643.60	8.833
643.79	8.844
643.98	8.843
644.16	8.838
644.35	8.863
644.54	8.861
644.73	8.886
644.92	8.884
645.11	8.912
645.30	8.908
645.49	8.921
645.68	8.920
645.87	8.923
646.06	8.938
646.24	8.949
646.43	8.950
646.62	8.957
646.81	8.959
647.00	8.972
647.19	8.957
647.38	8.964
647.57	8.956
647.76	8.968
647.95	8.989
648.13	8.988
648.32	9.003
648.51	9.006
648.70	9.003
648.89	9.028
649.08	9.041
649.27	9.053
649.46	9.072
649.65	9.062
649.83	9.064
650.02	9.058
650.21	9.106
650.40	9.102
650.59	9.097
650.78	9.130
650.97	9.114
651.16	9.105
651.34	9.115
651.53	9.101
651.72	9.135
651.91	9.132
652.10	9.130
652.29	9.131
652.48	9.155
652.66	9.184
652.85	9.192
653.04	9.228
653.23	9.241
653.42	9.266
653.61	9.268
653.80	9.245
653.98	9.256
654.17	9.284
654.36	9.296
654.55	9.271
654.74	9.289
654.93	9.308
655.11	9.301
655.30	9.314
655.49	9.333
655.68	9.358
655.87	9.387
656.06	9.395
656.24	9.402
656.43	9.383
656.62	9.417
656.81	9.432
657.00	9.441
657.19	9.459
657.37	9.474
657.56	9.458
657.75	9.430
657.94	9.473
658.13	9.523
658.31	9.530
658.50	9.544
658.69	9.552
658.88	9.550
659.07	9.559
659.26	9.571
659.44	9.569
659.63	9.579
659.82	9.629
660.01	9.623
660.20	9.611
660.38	9.640
660.57	9.661
660.76	9.656
660.95	9.674
661.14	9.671
661.32	9.673
661.51	9.704
661.70	9.749
661.89	9.779
662.08	9.803
662.26	9.817
662.45	9.812
662.64	9.794
662.83	9.819
663.01	9.811
663.20	9.853
663.39	9.856
663.58	9.852
663.77	9.822
663.95	9.827
664.14	9.820
664.33	9.840
664.52	9.855
664.70	9.865
664.89	9.884
665.08	9.896
665.27	9.875
665.45	9.890
665.64	9.918
665.83	9.935
666.02	9.931
666.20	9.937
666.39	9.929
666.58	9.941
666.77	9.967
666.95	9.968
667.14	9.982
667.33	10.004
667.52	9.993
667.70	9.995
667.89	10.010
668.08	10.047
668.27	10.047
668.45	10.049
668.64	10.040
668.83	10.030
669.02	10.012
669.20	10.020
669.39	10.024
669.58	10.058
669.77	10.054
669.95	10.069
670.14	10.050
670.33	10.072
670.51	10.083
670.70	10.116
670.89	10.140
671.08	10.200
671.26	10.234
671.45	10.243
671.64	10.276
671.82	10.290
672.01	10.287
672.20	10.297
672.39	10.309
672.57	10.335
672.76	10.333
672.95	10.331
673.13	10.305
673.32	10.286
673.51	10.273
673.70	10.236
673.88	10.256
674.07	10.277
674.26	10.286
674.44	10.306
674.63	10.319
674.82	10.325
675.00	10.340
675.19	10.355
675.38	10.392
675.56	10.433
675.75	10.456
675.94	10.423
676.12	10.418
676.31	10.446
676.50	10.440
676.69	10.445
676.87	10.452
677.06	10.475
677.25	10.482
677.43	10.487
677.62	10.479
677.81	10.503
677.99	10.567
678.18	10.593
678.37	10.612
678.55	10.623
678.74	10.638
678.93	10.665
679.11	10.679
679.30	10.691
679.48	10.690
679.67	10.699
679.86	10.725
680.04	10.727
680.23	10.729
680.42	10.726
680.60	10.742
680.79	10.759
680.98	10.763
681.16	10.765
681.35	10.778
681.54	10.757
681.72	10.774
681.91	10.772
682.10	10.771
682.28	10.775
682.47	10.771
682.65	10.784
682.84	10.784
683.03	10.788
683.21	10.817
683.40	10.802
683.59	10.832
683.77	10.847
683.96	10.856
684.14	10.876
684.33	10.882
684.52	10.923
684.70	10.928
684.89	10.937
685.07	10.956
685.26	10.962
685.45	10.991
685.63	10.990
685.82	11.022
686.00	11.047
686.19	11.063
686.38	11.074
686.56	11.072
686.75	11.076
686.93	11.083
687.12	11.067
687.31	11.069
687.49	11.071
687.68	11.094
687.86	11.077
688.05	11.051
688.24	11.048
688.42	11.062
688.61	11.052
688.79	11.070
688.98	11.090
689.17	11.117
689.35	11.132
689.54	11.140
689.72	11.131
689.91	11.134
690.09	11.160
690.28	11.183
690.47	11.195
690.65	11.210
690.84	11.224
691.02	11.222
691.21	11.203
691.39	11.207
691.58	11.243
691.76	11.282
691.95	11.295
692.14	11.313
692.32	11.303
692.51	11.342
692.69	11.375
692.88	11.359
693.06	11.365
693.25	11.410
693.43	11.412
693.62	11.446
693.81	11.445
693.99	11.465
694.18	11.472
694.36	11.486
694.55	11.468
694.73	11.433
694.92	11.469
695.10	11.460
695.29	11.466
695.47	11.487
695.66	11.451
695.84	11.477
696.03	11.475
696.21	11.478
696.40	11.497
696.59	11.511
696.77	11.533
696.96	11.544
697.14	11.595
697.33	11.627
697.51	11.673
697.70	11.694
697.88	11.719
698.07	11.734
698.25	11.770
698.44	11.784
698.62	11.784
698.81	11.818
698.99	11.839
699.18	11.826
699.36	11.823
699.55	11.797
699.73	11.801
699.92	11.777
700.10	11.786
700.29	11.792
700.47	11.796
700.66	11.819
700.84	11.799
701.03	11.780
701.21	11.789
701.40	11.787
701.58	11.821
701.77	11.837
701.95	11.862
702.13	11.850
702.32	11.848
702.50	11.871
702.69	11.856
702.87	11.877
703.06	11.886
703.24	11.897
703.43	11.883
703.61	11.885
703.80	11.902
703.98	11.887
704.17	11.917
704.35	11.911
704.54	11.918
704.72	11.932
704.90	11.951
705.09	11.955
705.27	11.998
705.46	12.058
705.64	12.036
705.83	12.031
706.01	12.068
706.20	12.073
706.38	12.066
706.56	12.072
706.75	12.086
706.93	12.083
707.12	12.118
707.30	12.117
707.49	12.115
707.67	12.145
707.86	12.168
708.04	12.207
708.22	12.189
708.41	12.217
708.59	12.222
708.78	12.223
708.96	12.246
709.14	12.262
709.33	12.266
709.51	12.245
709.70	12.244
709.88	12.233
710.07	12.238
710.25	12.315
710.43	12.318
710.62	12.344
710.80	12.346
710.99	12.363
711.17	12.356
711.35	12.361
711.54	12.389
711.72	12.410
711.91	12.434
712.09	12.411
712.27	12.379
712.46	12.410
712.64	12.400
712.83	12.392
713.01	12.407
713.19	12.431
713.38	12.445
713.56	12.479
713.75	12.487
713.93	12.505
714.11	12.529
714.30	12.554
714.48	12.547
714.66	12.568
714.85	12.618
715.03	12.652
715.22	12.640
715.40	12.658
715.58	12.655
715.77	12.701
715.95	12.715
716.13	12.722
716.32	12.744
716.50	12.754
716.68	12.745
716.87	12.729
717.05	12.707
717.24	12.716
717.42	12.726
717.60	12.715
717.79	12.695
717.97	12.701
718.15	12.722
718.34	12.734
718.52	12.779
718.70	12.797
718.89	12.796
719.07	12.779
719.25	12.790
719.44	12.817
719.62	12.835
719.80	12.834
719.99	12.816
720.17	12.827
720.35	12.834
720.54	12.781
720.72	12.775
720.90	12.815
721.09	12.866
721.27	12.898
721.45	12.843
721.64	12.852
721.82	12.845
722.00	12.906
722.19	12.907
722.37	12.912
722.55	12.979
722.74	13.026
722.92	13.047
723.10	13.049
723.28	13.090
723.47	13.145
723.65	13.218
723.83	13.259
724.02	13.221
724.20	13.228
724.38	13.220
724.57	13.179
724.75	13.190
724.93	13.210
725.11	13.213
725.30	13.185
725.48	13.228
725.66	13.201
725.85	13.205
726.03	13.222
726.21	13.253
726.39	13.259
726.58	13.328
726.76	13.331
726.94	13.368
727.13	13.386
727.31	13.409
727.49	13.381
727.67	13.394
727.86	13.422
728.04	13.448
728.22	13.457
728.40	13.502
728.59	13.472
728.77	13.467
728.95	13.441
729.13	13.467
729.32	13.487
729.50	13.506
729.68	13.507
729.86	13.526
730.05	13.559
730.23	13.560
730.41	13.570
730.59	13.605
730.78	13.641
730.96	13.658
731.14	13.688
731.32	13.698
731.51	13.690
731.69	13.708
731.87	13.700
732.05	13.677
732.24	13.694
732.42	13.695
732.60	13.700
732.78	13.708
732.97	13.731
733.15	13.698
733.33	13.703
733.51	13.737
733.69	13.738
733.88	13.736
734.06	13.763
734.24	13.756
734.42	13.765
734.60	13.762
734.79	13.759
734.97	13.769
735.15	13.774
735.33	13.766
735.52	13.767
735.70	13.763
735.88	13.777
736.06	13.790
736.24	13.841
736.43	13.850
736.61	13.877
736.79	13.875
736.97	13.871
737.15	13.878
737.34	13.870
737.52	13.882
737.70	13.946
737.88	13.997
738.06	13.985
738.24	14.031
738.43	14.039
738.61	14.059
738.79	14.107
738.97	14.150
739.15	14.162
739.33	14.184
739.52	14.167
739.70	14.152
739.88	14.130
740.06	14.128
740.24	14.069
740.42	14.084
740.61	14.065
740.79	14.086
740.97	14.040
741.15	14.082
741.33	14.114
741.51	14.173
741.70	14.178
741.88	14.205
742.06	14.251
742.24	14.281
742.42	14.279
742.60	14.323
742.78	14.282
742.97	14.285
743.15	14.298
743.33	14.318
743.51	14.322
743.69	14.356
743.87	14.333
744.05	14.346
744.24	14.372
744.42	14.392
744.60	14.392
744.78	14.417
744.96	14.464
745.14	14.492
745.32	14.474
745.50	14.466
745.69	14.415
745.87	14.453
746.05	14.437
746.23	14.410
746.41	14.392
746.59	14.379
746.77	14.416
746.95	14.452
747.13	14.409
747.32	14.400
747.50	14.411
747.68	14.485
747.86	14.501
748.04	14.534
748.22	14.549
748.40	14.640
748.58	14.714
748.76	14.706
748.94	14.722
749.13	14.732
749.31	14.769
749.49	14.782
749.67	14.813
749.85	14.806
750.03	14.854
750.21	14.883
750.39	14.843
750.57	14.803
750.75	14.828
750.93	14.820
751.11	14.864
751.30	14.836
751.48	14.822
751.66	14.818
751.84	14.865
752.02	14.819
752.20	14.839
752.38	14.854
752.56	14.886
752.74	14.874
752.92	14.866
753.10	14.897
753.28	14.979
753.46	14.994
753.64	14.948
753.82	14.931
754.00	14.934
754.18	14.946
754.37	14.934
754.55	14.973
754.73	14.974
754.91	15.008
755.09	14.979
755.27	15.003
755.45	15.024
755.63	15.081
755.81	15.092
755.99	15.087
756.17	15.102
756.35	15.104
756.53	15.037
756.71	15.080
756.89	15.060
757.07	15.030
757.25	15.024
757.43	15.029
757.61	15.020
757.79	15.005
757.97	15.047
758.15	15.073
758.33	15.170
758.51	15.260
758.69	15.252
758.87	15.272
759.05	15.321
759.23	15.321
759.41	15.360
759.59	15.372
759.77	15.383
759.95	15.418
760.13	15.425
760.31	15.371
760.49	15.342
760.67	15.383
760.85	15.421
761.03	15.449
761.21	15.465
761.39	15.474
761.57	15.534
761.75	15.591
761.93	15.617
762.11	15.593
762.29	15.600
762.47	15.657
762.65	15.652
762.83	15.640
763.01	15.651
763.19	15.666
763.37	15.694
763.55	15.711
763.73	15.760
763.91	15.775
764.09	15.807
764.27	15.843
764.45	15.802
764.63	15.793
764.81	15.802
764.99	15.812
765.16	15.798
765.34	15.786
765.52	15.743
765.70	15.687
765.88	15.655
766.06	15.631
766.24	15.623
766.42	15.633
766.60	15.638
766.78	15.648
766.96	15.646
767.14	15.676
767.32	15.661
767.50	15.683
767.68	15.728
767.86	15.746
768.03	15.765
768.21	15.779
768.39	15.773
768.57	15.777
768.75	15.792
768.93	15.806
769.11	15.824
769.29	15.839
769.47	15.822
769.65	15.815
769.83	15.851
770.01	15.903
770.19	15.921
770.36	15.958
770.54	16.007
770.72	15.982
770.90	15.960
771.08	15.948
771.26	16.005
771.44	16.062
771.62	16.086
771.80	16.095
771.98	16.012
772.15	16.034
772.33	16.076
772.51	16.077
772.69	16.125
772.87	16.179
773.05	16.154
773.23	16.142
773.41	16.108
773.58	16.085
773.76	16.079
773.94	16.115
774.12	16.059
774.30	16.040
774.48	16.034
774.66	15.981
774.84	15.927
775.01	15.969
775.19	16.017
775.37	16.126
775.55	16.163
775.73	16.146
775.91	16.275
776.09	16.328
776.26	16.280
776.44	16.344
776.62	16.420
776.80	16.472
776.98	16.520
777.16	16.500
777.34	16.471
777.51	16.448
777.69	16.514
777.87	16.422
778.05	16.446
778.23	16.576
778.41	16.525
778.58	16.501
778.76	16.542
778.94	16.544
779.12	16.618
779.30	16.557
779.48	16.624
779.65	16.579
779.83	16.607
780.01	16.601
780.19	16.624
780.37	16.632
780.55	16.588
780.72	16.629
780.90	16.590
781.08	16.569
781.26	16.734
781.44	16.726
781.61	16.771
781.79	16.780
781.97	16.796
782.15	16.766
782.33	16.774
782.50	16.850
782.68	16.840
782.86	16.876
783.04	16.852
783.22	16.784
783.39	16.776
783.57	16.739
783.75	16.740
783.93	16.771
784.11	16.783
784.28	16.615
784.46	16.650
784.64	16.635
784.82	16.634
784.99	16.622
785.17	16.631
785.35	16.780
785.53	16.830
785.71	16.895
785.88	16.806
786.06	16.772
786.24	17.017
786.42	16.985
786.59	16.987
786.77	17.022
786.95	16.979
787.13	17.017
787.30	16.939
787.48	16.950
787.66	16.862
787.84	16.914
788.01	16.957
788.19	16.964
788.37	17.074
788.55	17.000
788.72	17.040
788.90	17.082
789.08	17.155
789.26	17.117
789.43	17.196
789.61	17.292
789.79	17.327
789.97	17.359
790.14	17.385
790.32	17.405
790.50	17.516
790.68	17.532
790.85	17.574
791.03	17.555
791.21	17.610
791.38	17.530
791.56	17.488
791.74	17.551
791.92	17.528
792.09	17.474
792.27	17.407
792.45	17.314
792.62	17.241
792.80	17.229
792.98	17.079
793.16	17.066
793.33	17.067
793.51	17.104
793.69	17.054
793.86	17.029
794.04	17.005
794.22	17.043
794.39	17.137
794.57	17.212
794.75	17.382
794.93	17.562
795.10	17.651
795.28	17.760
795.46	17.785
795.63	17.818
795.81	18.017
795.99	18.020
796.16	18.005
796.34	18.086
796.52	18.029
796.69	17.959
796.87	18.015
797.05	18.017
797.22	17.957
797.40	17.962
797.58	17.936
797.75	17.824
797.93	17.912
798.11	17.964
798.28	17.941
798.46	17.946
798.64	17.877
798.81	17.714
798.99	17.629
799.17	17.622
799.34	17.556
799.52	17.597
799.70	17.589
799.87	17.594
800.05	17.563
800.22	17.497
800.40	17.562
800.58	17.563
800.75	17.706
800.93	17.801
801.11	17.866
801.28	18.049
801.46	18.062
801.63	18.162
801.81	18.143
801.99	18.236
802.16	18.266
802.34	18.260
802.52	18.359
802.69	18.345
802.87	18.329
803.04	18.363
803.22	18.268
803.40	18.213
803.57	18.113
803.75	18.171
803.93	18.080
804.10	18.053
804.28	18.060
804.45	18.068
804.63	18.101
804.81	18.091
804.98	18.191
805.16	18.186
805.33	18.250
805.51	18.309
805.68	18.310
805.86	18.373
806.04	18.419
806.21	18.485
806.39	18.481
806.56	18.414
806.74	18.447
806.92	18.380
807.09	18.439
807.27	18.567
807.44	18.537
807.62	18.559
807.79	18.544
807.97	18.624
808.15	18.640
808.32	18.658
808.50	18.678
808.67	18.761
808.85	18.675
809.02	18.674
809.20	18.567
809.38	18.619
809.55	18.580
809.73	18.564
809.90	18.556
810.08	18.449
810.25	18.491
810.43	18.517
810.60	18.408
810.78	18.486
810.95	18.429
811.13	18.484
811.31	18.476
811.48	18.566
811.66	18.593
811.83	18.569
812.01	18.642
812.18	18.548
812.36	18.574
812.53	18.614
812.71	18.642
812.88	18.649
813.06	18.627
813.23	18.661
813.41	18.714
813.58	18.653
813.76	18.677
813.93	18.583
814.11	18.583
814.28	18.667
814.46	18.802
814.63	18.936
814.81	19.049
814.98	18.964
815.16	18.979
815.33	18.844
815.51	18.973
815.68	18.923
815.86	19.063
816.03	19.096
816.21	19.034
816.38	18.842
816.56	18.755
816.73	18.823
816.91	18.995
817.08	18.990
817.26	19.058
817.43	18.992
817.61	19.030
817.78	19.071
817.96	19.156
818.13	19.162
818.31	19.260
818.48	19.335
818.66	19.329
818.83	19.217
819.01	19.171
819.18	19.171
819.36	19.239
819.53	19.276
819.70	19.149
819.88	19.196
820.05	19.231
820.23	19.372
820.40	19.377
820.58	19.357
820.75	19.403
820.93	19.434
821.10	19.456
821.28	19.555
821.45	19.633
821.62	19.788
821.80	19.819
821.97	19.919
822.15	19.944
822.32	19.999
822.50	20.122
822.67	20.393
822.84	20.502
823.02	20.496
823.19	20.377
823.37	20.249
823.54	20.129
823.72	19.990
823.89	19.845
824.06	19.752
824.24	19.679
824.41	19.602
824.59	19.477
824.76	19.368
824.94	19.266
825.11	19.167
825.28	19.076
825.46	18.990
825.63	18.952
825.81	18.949
825.98	18.935
826.15	18.938
826.33	18.930
826.50	18.972
826.68	19.005
826.85	19.032
827.02	19.101
827.20	19.216
827.37	19.333
827.54	19.489
827.72	19.701
827.89	19.884
828.07	19.989
828.24	20.082
828.41	20.082
828.59	20.065
828.76	20.035
828.94	19.996
829.11	19.916
829.28	19.861
829.46	19.782
829.63	19.679
829.80	19.570
829.98	19.452
830.15	19.332
830.32	19.266
830.50	19.235
830.67	19.228
830.85	19.241
831.02	19.249
831.19	19.238
831.37	19.265
831.54	19.295
831.71	19.298
831.89	19.404
832.06	19.460
832.23	19.541
832.41	19.522
832.58	19.559
832.75	19.651
832.93	19.703
833.10	19.890
833.27	19.963
833.45	20.024
833.62	20.144
833.79	20.287
833.97	20.494
834.14	20.585
834.31	20.775
834.49	20.878
834.66	20.818
834.83	20.933
835.01	20.849
835.18	20.815
835.35	20.740
835.52	20.649
835.70	20.555
835.87	20.447
836.04	20.363
836.22	20.240
836.39	20.161
836.56	20.125
836.74	20.044
836.91	20.012
837.08	19.907
837.25	19.909
837.43	19.964
837.60	19.931
837.77	19.957
837.95	19.997
838.12	20.021
838.29	19.950
838.46	19.961
838.64	19.862
838.81	19.798
838.98	19.894
839.16	19.888
839.33	19.802
839.50	19.922
839.67	19.988
839.85	20.061
840.02	20.171
840.19	20.187
840.36	20.369
840.54	20.531
840.71	20.690
840.88	20.916
841.06	20.968
841.23	21.090
841.40	21.023
841.57	20.981
841.75	20.845
841.92	20.814
842.09	20.829
842.26	20.739
842.44	20.660
842.61	20.544
842.78	20.429
842.95	20.534
843.12	20.320
843.30	20.267
843.47	20.385
843.64	20.456
843.81	20.398
843.99	20.441
844.16	20.511
844.33	20.587
844.50	20.759
844.68	20.861
844.85	20.685
845.02	21.104
845.19	21.033
845.36	20.613
845.54	20.688
845.71	20.860
845.88	20.859
846.05	20.742
846.22	20.555
846.40	20.559
846.57	20.587
846.74	20.679
846.91	20.290
847.08	20.525
847.26	20.790
847.43	20.940
847.60	20.851
847.77	20.879
847.94	21.015
848.12	21.313
848.29	21.347
848.46	21.115
848.63	21.010
848.80	21.074
848.98	21.192
849.15	21.261
849.32	21.267
849.49	21.231
849.66	21.328
849.83	20.930
850.01	21.088
850.18	21.030
850.35	21.024
850.52	21.300
850.69	21.176
850.86	21.249
851.04	20.993
851.21	21.050
851.38	21.082
851.55	21.041
851.72	21.112
851.89	20.676
852.06	20.997
852.24	20.866
852.41	20.744
852.58	20.756
852.75	20.633
852.92	20.754
853.09	20.478
853.26	20.576
853.44	20.770
853.61	20.980
853.78	21.144
853.95	21.076
854.12	21.286
854.29	21.544
854.46	21.705
854.64	21.696
854.81	21.760
854.98	21.721
855.15	21.673
855.32	21.588
855.49	21.676
855.66	21.524
855.83	21.388
856.00	21.304
856.18	20.894
856.35	20.952
856.52	20.964
856.69	21.283
856.86	21.522
857.03	21.622
857.20	21.773
857.37	22.087
857.54	22.509
857.71	22.495
857.89	22.661
858.06	22.545
858.23	22.467
858.40	22.236
858.57	22.045
858.74	21.929
858.91	21.700
859.08	21.561
859.25	21.175
859.42	21.026
859.59	21.221
859.76	21.335
859.94	21.755
860.11	22.094
860.28	22.392
860.45	22.387
860.62	22.527
860.79	22.632
860.96	22.462
861.13	22.241
861.30	22.280
861.47	22.382
861.64	22.274
861.81	21.823
861.98	21.617
862.15	21.646
862.32	21.659
862.49	21.411
862.66	21.614
862.83	21.623
863.01	22.106
863.18	21.858
863.35	21.314
863.52	21.708
863.69	21.876
863.86	21.782
864.03	21.591
864.20	21.643
864.37	21.626
864.54	21.626
864.71	22.030
864.88	22.007
865.05	22.198
865.22	22.435
865.39	22.290
865.56	22.395
865.73	22.491
865.90	22.760
866.07	22.780
866.24	22.944
866.41	23.087
866.58	22.857
866.75	22.609
866.92	22.606
867.09	22.684
867.26	22.508
867.43	22.172
867.60	22.137
867.77	22.047
867.94	22.152
868.11	22.317
868.28	22.292
868.45	22.091
868.62	22.050
868.79	22.060
868.96	22.006
869.13	21.928
869.30	22.102
869.47	22.070
869.64	22.167
869.81	21.813
869.98	21.792
870.15	21.878
870.32	22.014
870.49	22.069
870.66	22.403
870.83	22.448
871.00	22.805
871.16	23.098
871.33	23.067
871.50	22.807
871.67	22.987
871.84	23.013
872.01	22.742
872.18	22.648
872.35	23.137
872.52	22.851
872.69	22.690
872.86	22.546
873.03	22.543
873.20	22.620
873.37	22.740
873.54	22.639
873.71	22.529
873.88	22.568
874.05	22.805
874.21	22.642
874.38	22.557
874.55	22.565
874.72	22.436
874.89	22.317
875.06	22.476
875.23	22.537
875.40	22.714
875.57	22.773
875.74	22.857
875.91	22.935
876.08	22.947
876.24	22.987
876.41	23.091
876.58	23.357
876.75	23.321
876.92	23.236
877.09	23.201
877.26	23.502
877.43	23.197
877.60	23.280
877.77	22.998
877.93	23.070
878.10	23.177
878.27	23.180
878.44	23.180
878.61	23.317
878.78	23.290
878.95	23.215
879.12	22.873
879.28	23.116
879.45	23.107
879.62	23.195
879.79	22.810
879.96	23.060
880.13	23.041
880.30	23.018
880.47	23.035
880.63	23.188
880.80	23.231
880.97	23.521
881.14	23.556
881.31	23.580
881.48	23.837
881.65	24.132
881.81	24.138
881.98	24.491
882.15	24.562
882.32	24.710
882.49	24.699
882.66	24.714
882.82	24.531
882.99	24.405
883.16	24.322
883.33	24.178
883.50	24.065
883.67	23.955
883.83	23.819
884.00	23.719
884.17	23.559
884.34	23.434
884.51	23.284
884.68	23.174
884.84	23.091
885.01	22.964
885.18	22.883
885.35	22.803
885.52	22.723
885.68	22.685
885.85	22.609
886.02	22.405
886.19	22.366
886.36	22.096
886.53	23.238
886.69	22.698
>>>>>End Spectral Data<<<<<
