OOIBase32 Version 2.0.6.5 Data File
++++++++++++++++++++++++++++++++++++
Date: 03-24-2011, 10:55:37
User: Valued Ocean Optics Customer
Spectrometer Serial Number: USB4C01507
Spectrometer Channel: Master
Integration Time (msec): 46
Spectra Averaged: 30
Boxcar Smoothing: 5
Correct for Electrical Dark: Enabled
Time Normalized: Disabled
Dual-beam Reference: Disabled
Reference Channel: Master
Temperature: Not acquired
Spectrometer Type: S4000
ADC Type: USB4000
Number of Pixels in File: 3648
Graph Title: 
>>>>>Begin Spectral Data<<<<<
179.17	1140.199
179.39	3236.842
179.60	-169.691
179.82	-299.658
180.03	336.932
180.24	814.607
180.46	38.524
180.67	-300.455
180.89	123.433
181.10	-194.056
181.31	121.967
181.53	3.711
181.74	17.950
181.96	192.357
182.17	44.853
182.39	2.182
182.60	33.686
182.81	182.832
183.03	212.864
183.24	-271.335
183.46	17.649
183.67	11.921
183.88	1.109
184.10	9.615
184.31	2.484
184.53	11.484
184.74	4.400
184.96	6.568
185.17	-2.510
185.38	-3.219
185.60	2.824
185.81	5.759
186.03	5.478
186.24	11.086
186.45	10.993
186.67	8.044
186.88	6.322
187.10	10.062
187.31	7.016
187.52	6.254
187.74	4.040
187.95	-2.297
188.17	-15.766
188.38	-12.874
188.59	-14.530
188.81	-17.744
189.02	-14.440
189.24	-10.731
189.45	-10.845
189.66	-8.841
189.88	-18.039
190.09	-20.879
190.30	-19.941
190.52	-7.023
190.73	-6.617
190.95	-4.923
191.16	-3.217
191.37	-4.751
191.59	-18.977
191.80	-13.837
192.02	-15.355
192.23	-3.149
192.44	-1.381
192.66	3.177
192.87	-8.004
193.08	-17.810
193.30	-15.392
193.51	-6.575
193.73	1.611
193.94	16.085
194.15	11.615
194.37	20.986
194.58	17.238
194.79	14.415
195.01	13.339
195.22	14.133
195.44	20.026
195.65	16.855
195.86	15.639
196.08	15.120
196.29	9.445
196.50	11.312
196.72	8.616
196.93	10.684
197.14	10.836
197.36	12.317
197.57	10.496
197.79	12.834
198.00	10.094
198.21	7.441
198.43	7.094
198.64	11.275
198.85	12.151
199.07	11.542
199.28	10.792
199.49	10.120
199.71	7.814
199.92	11.332
200.13	4.119
200.35	10.124
200.56	0.961
200.78	-4.170
200.99	-8.119
201.20	-7.197
201.42	-9.747
201.63	-12.212
201.84	-9.511
202.06	-6.981
202.27	-12.064
202.48	-3.062
202.70	-10.767
202.91	-3.824
203.12	-3.381
203.34	-4.483
203.55	-4.598
203.76	-4.879
203.98	3.651
204.19	6.534
204.40	7.515
204.62	12.080
204.83	3.425
205.04	6.421
205.26	5.873
205.47	7.333
205.68	7.736
205.90	6.064
206.11	8.053
206.32	4.705
206.54	0.994
206.75	0.635
206.96	2.387
207.18	12.550
207.39	20.019
207.60	24.998
207.82	26.539
208.03	29.420
208.24	29.058
208.45	29.895
208.67	25.425
208.88	26.287
209.09	20.622
209.31	15.307
209.52	6.842
209.73	0.022
209.95	0.547
210.16	-0.846
210.37	-4.817
210.59	-3.688
210.80	-5.009
211.01	-1.910
211.23	0.461
211.44	1.338
211.65	5.875
211.86	10.698
212.08	10.952
212.29	6.287
212.50	3.577
212.72	1.388
212.93	-0.888
213.14	0.993
213.36	1.113
213.57	0.020
213.78	1.076
213.99	1.550
214.21	-0.093
214.42	2.723
214.63	2.521
214.85	1.601
215.06	5.906
215.27	9.269
215.49	5.535
215.70	6.181
215.91	5.669
216.12	4.722
216.34	5.166
216.55	7.281
216.76	3.554
216.98	3.632
217.19	6.268
217.40	7.294
217.61	6.564
217.83	8.632
218.04	6.222
218.25	4.462
218.47	5.516
218.68	5.211
218.89	3.028
219.10	4.357
219.32	3.752
219.53	4.236
219.74	3.563
219.95	1.471
220.17	0.551
220.38	1.799
220.59	0.773
220.81	1.501
221.02	1.304
221.23	2.871
221.44	3.115
221.66	4.214
221.87	2.991
222.08	2.569
222.29	4.349
222.51	5.525
222.72	5.286
222.93	6.522
223.14	6.163
223.36	5.409
223.57	4.981
223.78	5.754
223.99	5.064
224.21	5.976
224.42	5.293
224.63	4.354
224.84	3.396
225.06	3.704
225.27	3.660
225.48	3.446
225.69	3.846
225.91	4.114
226.12	3.353
226.33	4.303
226.54	3.875
226.76	4.136
226.97	4.032
227.18	4.197
227.39	4.049
227.61	4.112
227.82	4.120
228.03	4.142
228.24	3.931
228.46	4.037
228.67	4.034
228.88	4.069
229.09	3.960
229.31	4.080
229.52	4.064
229.73	4.224
229.94	4.059
230.16	4.256
230.37	4.157
230.58	4.409
230.79	4.273
231.00	4.242
231.22	4.477
231.43	4.831
231.64	4.676
231.85	4.663
232.07	4.500
232.28	5.023
232.49	4.600
232.70	4.369
232.91	4.293
233.13	4.519
233.34	4.304
233.55	4.451
233.76	4.452
233.98	4.590
234.19	4.584
234.40	4.566
234.61	4.510
234.82	4.569
235.04	4.548
235.25	4.855
235.46	4.866
235.67	4.850
235.88	4.817
236.10	4.834
236.31	4.727
236.52	4.701
236.73	5.067
236.94	5.167
237.16	4.679
237.37	5.286
237.58	4.975
237.79	4.829
238.01	4.535
238.22	4.291
238.43	4.179
238.64	4.320
238.85	4.173
239.06	3.936
239.28	3.470
239.49	3.865
239.70	3.488
239.91	3.501
240.12	3.522
240.34	3.701
240.55	3.714
240.76	3.810
240.97	3.764
241.18	3.832
241.40	3.719
241.61	3.824
241.82	3.804
242.03	4.004
242.24	3.885
242.45	3.867
242.67	3.873
242.88	3.862
243.09	3.754
243.30	3.762
243.51	3.790
243.73	3.841
243.94	3.712
244.15	3.652
244.36	3.413
244.57	3.736
244.78	3.645
245.00	3.405
245.21	3.358
245.42	3.353
245.63	3.307
245.84	3.280
246.05	3.272
246.27	3.336
246.48	3.308
246.69	3.311
246.90	3.296
247.11	3.261
247.32	3.354
247.54	3.372
247.75	3.318
247.96	3.299
248.17	3.355
248.38	3.400
248.59	3.311
248.81	3.327
249.02	3.264
249.23	3.173
249.44	3.093
249.65	3.056
249.86	2.796
250.07	2.985
250.29	2.938
250.50	2.822
250.71	2.865
250.92	2.903
251.13	2.937
251.34	3.052
251.55	3.002
251.77	3.147
251.98	3.070
252.19	3.112
252.40	2.990
252.61	3.009
252.82	2.847
253.03	2.758
253.25	2.764
253.46	2.731
253.67	2.623
253.88	2.684
254.09	2.714
254.30	2.692
254.51	2.934
254.73	3.064
254.94	3.099
255.15	3.410
255.36	3.254
255.57	3.157
255.78	3.069
255.99	3.029
256.20	2.917
256.42	2.874
256.63	2.862
256.84	2.746
257.05	2.670
257.26	2.765
257.47	2.608
257.68	2.784
257.89	2.864
258.10	2.961
258.32	2.871
258.53	2.890
258.74	2.839
258.95	2.793
259.16	2.790
259.37	2.803
259.58	2.708
259.79	2.753
260.00	2.690
260.22	2.695
260.43	2.694
260.64	2.715
260.85	2.731
261.06	2.721
261.27	2.710
261.48	2.791
261.69	2.768
261.90	2.898
262.12	2.800
262.33	2.885
262.54	2.818
262.75	2.722
262.96	2.706
263.17	2.669
263.38	2.698
263.59	2.681
263.80	2.503
264.01	2.558
264.22	2.457
264.44	2.506
264.65	2.380
264.86	2.428
265.07	2.285
265.28	2.435
265.49	2.464
265.70	2.465
265.91	2.401
266.12	2.507
266.33	2.434
266.54	2.558
266.75	2.551
266.97	2.612
267.18	2.616
267.39	2.665
267.60	2.614
267.81	2.586
268.02	2.588
268.23	2.818
268.44	2.742
268.65	2.824
268.86	2.808
269.07	2.851
269.28	2.769
269.49	2.838
269.70	2.774
269.92	2.637
270.13	2.622
270.34	2.659
270.55	2.502
270.76	2.466
270.97	2.411
271.18	2.441
271.39	2.354
271.60	2.433
271.81	2.421
272.02	2.465
272.23	2.495
272.44	2.528
272.65	2.479
272.86	2.546
273.07	2.614
273.28	2.609
273.49	2.545
273.71	2.525
273.92	2.526
274.13	2.386
274.34	2.422
274.55	2.467
274.76	2.365
274.97	2.389
275.18	2.315
275.39	2.301
275.60	2.343
275.81	2.397
276.02	2.364
276.23	2.376
276.44	2.461
276.65	2.424
276.86	2.458
277.07	2.400
277.28	2.453
277.49	2.532
277.70	2.507
277.91	2.448
278.12	2.424
278.33	2.442
278.54	2.426
278.75	2.333
278.96	2.311
279.17	2.290
279.39	2.338
279.60	2.371
279.81	2.268
280.02	2.185
280.23	2.204
280.44	2.204
280.65	2.310
280.86	2.393
281.07	2.487
281.28	2.595
281.49	2.465
281.70	2.522
281.91	2.433
282.12	2.494
282.33	2.529
282.54	2.538
282.75	2.532
282.96	2.559
283.17	2.473
283.38	2.399
283.59	2.258
283.80	2.315
284.01	2.284
284.22	2.298
284.43	2.263
284.64	2.321
284.85	2.359
285.06	2.373
285.27	2.331
285.48	2.325
285.69	2.340
285.90	2.489
286.11	2.538
286.32	2.565
286.53	2.500
286.74	2.550
286.95	2.480
287.16	2.484
287.37	2.433
287.58	2.421
287.79	2.408
288.00	2.462
288.21	2.260
288.42	2.150
288.63	2.161
288.84	2.208
289.05	2.248
289.26	2.314
289.47	2.273
289.68	2.240
289.89	2.261
290.10	2.244
290.31	2.160
290.51	2.219
290.72	2.314
290.93	2.353
291.14	2.340
291.35	2.232
291.56	2.184
291.77	2.165
291.98	2.165
292.19	2.140
292.40	2.099
292.61	2.099
292.82	2.145
293.03	2.139
293.24	2.053
293.45	2.114
293.66	2.104
293.87	2.126
294.08	2.084
294.29	2.183
294.50	2.158
294.71	2.238
294.92	2.339
295.13	2.297
295.34	2.204
295.55	2.227
295.76	2.135
295.96	2.130
296.17	2.109
296.38	2.213
296.59	2.170
296.80	2.170
297.01	2.165
297.22	2.172
297.43	2.157
297.64	2.209
297.85	2.186
298.06	2.193
298.27	2.255
298.48	2.250
298.69	2.186
298.90	2.204
299.11	2.228
299.32	2.242
299.53	2.208
299.73	2.240
299.94	2.284
300.15	2.275
300.36	2.358
300.57	2.354
300.78	2.356
300.99	2.333
301.20	2.256
301.41	2.261
301.62	2.227
301.83	2.234
302.04	2.203
302.25	2.151
302.45	2.193
302.66	2.152
302.87	2.127
303.08	2.089
303.29	2.069
303.50	2.193
303.71	2.247
303.92	2.224
304.13	2.143
304.34	2.163
304.55	2.131
304.76	2.173
304.96	2.105
305.17	2.076
305.38	2.122
305.59	2.178
305.80	2.070
306.01	1.985
306.22	1.986
306.43	2.076
306.64	2.005
306.85	2.043
307.06	1.949
307.26	1.973
307.47	1.920
307.68	2.000
307.89	1.976
308.10	2.019
308.31	2.018
308.52	2.048
308.73	2.021
308.94	2.046
309.14	2.054
309.35	2.116
309.56	2.176
309.77	2.213
309.98	2.185
310.19	2.206
310.40	2.187
310.61	2.149
310.82	2.116
311.02	2.128
311.23	2.153
311.44	2.101
311.65	2.026
311.86	1.973
312.07	1.986
312.28	1.930
312.49	1.847
312.69	1.847
312.90	1.862
313.11	1.859
313.32	1.825
313.53	1.800
313.74	1.817
313.95	1.867
314.16	1.903
314.36	1.909
314.57	1.977
314.78	2.032
314.99	2.077
315.20	2.151
315.41	2.173
315.62	2.133
315.82	2.133
316.03	2.107
316.24	2.103
316.45	2.123
316.66	2.126
316.87	2.118
317.08	2.114
317.28	2.127
317.49	2.047
317.70	2.046
317.91	2.070
318.12	2.103
318.33	2.128
318.54	2.120
318.74	2.062
318.95	2.047
319.16	2.045
319.37	2.063
319.58	2.013
319.79	2.003
319.99	1.983
320.20	1.986
320.41	1.961
320.62	2.007
320.83	1.973
321.04	2.019
321.24	1.981
321.45	2.006
321.66	1.966
321.87	1.956
322.08	2.003
322.29	2.034
322.49	2.049
322.70	2.053
322.91	2.025
323.12	2.076
323.33	2.063
323.54	2.052
323.74	1.985
323.95	2.000
324.16	2.010
324.37	1.944
324.58	1.933
324.79	1.910
324.99	1.899
325.20	1.950
325.41	1.926
325.62	1.932
325.83	1.936
326.03	1.866
326.24	1.844
326.45	1.828
326.66	1.868
326.87	1.845
327.07	1.821
327.28	1.799
327.49	1.719
327.70	1.703
327.91	1.682
328.11	1.730
328.32	1.852
328.53	1.907
328.74	1.918
328.95	1.938
329.15	1.945
329.36	2.030
329.57	2.026
329.78	2.076
329.99	2.054
330.19	2.088
330.40	2.029
330.61	2.011
330.82	1.952
331.03	1.923
331.23	1.903
331.44	1.940
331.65	1.850
331.86	1.922
332.07	1.863
332.27	1.881
332.48	1.839
332.69	1.851
332.90	1.822
333.10	1.892
333.31	1.900
333.52	1.866
333.73	1.862
333.94	1.931
334.14	1.861
334.35	1.888
334.56	1.942
334.77	1.929
334.97	1.912
335.18	1.887
335.39	1.839
335.60	1.867
335.80	1.860
336.01	1.829
336.22	1.716
336.43	1.721
336.64	1.726
336.84	1.640
337.05	1.628
337.26	1.642
337.47	1.654
337.67	1.666
337.88	1.604
338.09	1.629
338.30	1.663
338.50	1.766
338.71	1.804
338.92	1.823
339.13	1.865
339.33	1.912
339.54	1.891
339.75	1.888
339.96	1.843
340.16	1.864
340.37	1.905
340.58	1.863
340.79	1.846
340.99	1.835
341.20	1.762
341.41	1.742
341.62	1.713
341.82	1.740
342.03	1.699
342.24	1.706
342.44	1.710
342.65	1.692
342.86	1.681
343.07	1.656
343.27	1.684
343.48	1.717
343.69	1.711
343.90	1.759
344.10	1.700
344.31	1.739
344.52	1.775
344.72	1.790
344.93	1.752
345.14	1.766
345.35	1.738
345.55	1.707
345.76	1.706
345.97	1.749
346.18	1.678
346.38	1.730
346.59	1.708
346.80	1.715
347.00	1.695
347.21	1.687
347.42	1.724
347.62	1.739
347.83	1.700
348.04	1.692
348.25	1.653
348.45	1.706
348.66	1.704
348.87	1.754
349.07	1.699
349.28	1.707
349.49	1.725
349.70	1.694
349.90	1.718
350.11	1.712
350.32	1.687
350.52	1.693
350.73	1.665
350.94	1.670
351.14	1.657
351.35	1.689
351.56	1.668
351.76	1.664
351.97	1.686
352.18	1.688
352.39	1.710
352.59	1.772
352.80	1.759
353.01	1.798
353.21	1.760
353.42	1.748
353.63	1.706
353.83	1.698
354.04	1.719
354.25	1.692
354.45	1.681
354.66	1.680
354.87	1.633
355.07	1.643
355.28	1.610
355.49	1.660
355.69	1.684
355.90	1.712
356.11	1.755
356.31	1.768
356.52	1.780
356.73	1.801
356.93	1.798
357.14	1.807
357.35	1.801
357.55	1.813
357.76	1.759
357.97	1.689
358.17	1.687
358.38	1.688
358.59	1.647
358.79	1.650
359.00	1.636
359.21	1.658
359.41	1.668
359.62	1.679
359.83	1.655
360.03	1.670
360.24	1.711
360.44	1.708
360.65	1.667
360.86	1.694
361.06	1.650
361.27	1.630
361.48	1.592
361.68	1.619
361.89	1.639
362.10	1.642
362.30	1.646
362.51	1.647
362.72	1.666
362.92	1.681
363.13	1.642
363.33	1.647
363.54	1.676
363.75	1.728
363.95	1.682
364.16	1.677
364.37	1.696
364.57	1.715
364.78	1.706
364.98	1.696
365.19	1.700
365.40	1.743
365.60	1.751
365.81	1.736
366.02	1.726
366.22	1.726
366.43	1.706
366.63	1.669
366.84	1.635
367.05	1.621
367.25	1.586
367.46	1.549
367.66	1.535
367.87	1.559
368.08	1.549
368.28	1.547
368.49	1.550
368.69	1.531
368.90	1.565
369.11	1.593
369.31	1.594
369.52	1.643
369.72	1.662
369.93	1.656
370.14	1.649
370.34	1.647
370.55	1.613
370.75	1.629
370.96	1.643
371.17	1.665
371.37	1.657
371.58	1.682
371.78	1.664
371.99	1.678
372.20	1.694
372.40	1.689
372.61	1.693
372.81	1.734
373.02	1.702
373.23	1.687
373.43	1.673
373.64	1.666
373.84	1.661
374.05	1.673
374.25	1.673
374.46	1.623
374.67	1.645
374.87	1.679
375.08	1.632
375.28	1.615
375.49	1.635
375.69	1.627
375.90	1.604
376.11	1.602
376.31	1.586
376.52	1.578
376.72	1.615
376.93	1.597
377.13	1.556
377.34	1.601
377.55	1.646
377.75	1.661
377.96	1.635
378.16	1.650
378.37	1.692
378.57	1.702
378.78	1.712
378.98	1.703
379.19	1.721
379.40	1.697
379.60	1.663
379.81	1.664
380.01	1.621
380.22	1.637
380.42	1.656
380.63	1.626
380.83	1.607
381.04	1.579
381.24	1.558
381.45	1.542
381.66	1.567
381.86	1.576
382.07	1.563
382.27	1.576
382.48	1.582
382.68	1.571
382.89	1.563
383.09	1.572
383.30	1.572
383.50	1.595
383.71	1.564
383.91	1.590
384.12	1.595
384.32	1.605
384.53	1.612
384.73	1.604
384.94	1.615
385.15	1.614
385.35	1.625
385.56	1.637
385.76	1.611
385.97	1.633
386.17	1.614
386.38	1.616
386.58	1.605
386.79	1.634
386.99	1.624
387.20	1.615
387.40	1.603
387.61	1.604
387.81	1.602
388.02	1.622
388.22	1.622
388.43	1.618
388.63	1.594
388.84	1.599
389.04	1.588
389.25	1.605
389.45	1.599
389.66	1.615
389.86	1.610
390.07	1.616
390.27	1.635
390.48	1.615
390.68	1.628
390.89	1.663
391.09	1.675
391.30	1.660
391.50	1.674
391.71	1.685
391.91	1.667
392.12	1.683
392.32	1.691
392.53	1.690
392.73	1.725
392.94	1.730
393.14	1.723
393.35	1.733
393.55	1.738
393.75	1.713
393.96	1.706
394.16	1.707
394.37	1.690
394.57	1.701
394.78	1.702
394.98	1.684
395.19	1.663
395.39	1.668
395.60	1.656
395.80	1.661
396.01	1.658
396.21	1.675
396.42	1.679
396.62	1.702
396.83	1.680
397.03	1.702
397.23	1.717
397.44	1.736
397.64	1.732
397.85	1.740
398.05	1.735
398.26	1.758
398.46	1.719
398.67	1.737
398.87	1.708
399.08	1.693
399.28	1.659
399.48	1.641
399.69	1.604
399.89	1.621
400.10	1.615
400.30	1.611
400.51	1.598
400.71	1.646
400.92	1.638
401.12	1.661
401.32	1.669
401.53	1.670
401.73	1.681
401.94	1.713
402.14	1.698
402.35	1.706
402.55	1.718
402.75	1.728
402.96	1.705
403.16	1.718
403.37	1.689
403.57	1.713
403.78	1.716
403.98	1.711
404.18	1.708
404.39	1.695
404.59	1.697
404.80	1.698
405.00	1.691
405.21	1.716
405.41	1.710
405.61	1.731
405.82	1.719
406.02	1.727
406.23	1.725
406.43	1.735
406.63	1.749
406.84	1.748
407.04	1.740
407.25	1.762
407.45	1.753
407.65	1.746
407.86	1.730
408.06	1.704
408.27	1.688
408.47	1.703
408.67	1.679
408.88	1.654
409.08	1.643
409.29	1.644
409.49	1.630
409.69	1.614
409.90	1.629
410.10	1.644
410.31	1.658
410.51	1.662
410.71	1.650
410.92	1.653
411.12	1.647
411.33	1.651
411.53	1.643
411.73	1.631
411.94	1.643
412.14	1.631
412.34	1.640
412.55	1.662
412.75	1.659
412.96	1.676
413.16	1.682
413.36	1.705
413.57	1.688
413.77	1.698
413.97	1.725
414.18	1.737
414.38	1.729
414.59	1.728
414.79	1.710
414.99	1.714
415.20	1.704
415.40	1.716
415.60	1.708
415.81	1.719
416.01	1.716
416.21	1.689
416.42	1.691
416.62	1.700
416.83	1.683
417.03	1.684
417.23	1.667
417.44	1.665
417.64	1.649
417.84	1.666
418.05	1.674
418.25	1.671
418.45	1.689
418.66	1.670
418.86	1.653
419.06	1.663
419.27	1.666
419.47	1.675
419.67	1.675
419.88	1.681
420.08	1.665
420.28	1.644
420.49	1.647
420.69	1.626
420.89	1.621
421.10	1.632
421.30	1.626
421.50	1.629
421.71	1.625
421.91	1.634
422.11	1.628
422.32	1.633
422.52	1.640
422.72	1.637
422.93	1.660
423.13	1.683
423.33	1.684
423.54	1.687
423.74	1.678
423.94	1.685
424.15	1.672
424.35	1.686
424.55	1.685
424.76	1.695
424.96	1.699
425.16	1.689
425.36	1.669
425.57	1.659
425.77	1.658
425.97	1.680
426.18	1.697
426.38	1.702
426.58	1.686
426.79	1.693
426.99	1.676
427.19	1.670
427.39	1.686
427.60	1.706
427.80	1.733
428.00	1.751
428.21	1.733
428.41	1.716
428.61	1.729
428.82	1.736
429.02	1.733
429.22	1.768
429.42	1.771
429.63	1.751
429.83	1.749
430.03	1.738
430.24	1.723
430.44	1.736
430.64	1.737
430.84	1.739
431.05	1.738
431.25	1.756
431.45	1.749
431.65	1.741
431.86	1.743
432.06	1.745
432.26	1.746
432.47	1.754
432.67	1.745
432.87	1.743
433.07	1.735
433.28	1.747
433.48	1.724
433.68	1.710
433.88	1.727
434.09	1.738
434.29	1.732
434.49	1.746
434.69	1.731
434.90	1.735
435.10	1.728
435.30	1.734
435.51	1.741
435.71	1.750
435.91	1.768
436.11	1.757
436.32	1.739
436.52	1.756
436.72	1.748
436.92	1.748
437.13	1.744
437.33	1.752
437.53	1.730
437.73	1.712
437.93	1.722
438.14	1.718
438.34	1.709
438.54	1.725
438.74	1.718
438.95	1.710
439.15	1.719
439.35	1.730
439.55	1.727
439.76	1.746
439.96	1.752
440.16	1.755
440.36	1.753
440.56	1.764
440.77	1.763
440.97	1.763
441.17	1.768
441.37	1.772
441.58	1.759
441.78	1.780
441.98	1.785
442.18	1.794
442.38	1.792
442.59	1.802
442.79	1.796
442.99	1.804
443.19	1.788
443.40	1.794
443.60	1.792
443.80	1.810
444.00	1.797
444.20	1.792
444.41	1.772
444.61	1.777
444.81	1.785
445.01	1.788
445.21	1.776
445.42	1.788
445.62	1.789
445.82	1.786
446.02	1.786
446.22	1.783
446.43	1.778
446.63	1.789
446.83	1.794
447.03	1.783
447.23	1.787
447.44	1.802
447.64	1.800
447.84	1.801
448.04	1.803
448.24	1.804
448.44	1.802
448.65	1.812
448.85	1.810
449.05	1.811
449.25	1.821
449.45	1.832
449.65	1.832
449.86	1.853
450.06	1.843
450.26	1.855
450.46	1.860
450.66	1.874
450.87	1.874
451.07	1.884
451.27	1.870
451.47	1.883
451.67	1.883
451.87	1.885
452.08	1.871
452.28	1.870
452.48	1.865
452.68	1.867
452.88	1.864
453.08	1.867
453.28	1.858
453.49	1.869
453.69	1.865
453.89	1.864
454.09	1.863
454.29	1.866
454.49	1.884
454.70	1.894
454.90	1.881
455.10	1.881
455.30	1.874
455.50	1.888
455.70	1.892
455.90	1.891
456.11	1.878
456.31	1.881
456.51	1.874
456.71	1.866
456.91	1.865
457.11	1.877
457.31	1.872
457.51	1.883
457.72	1.879
457.92	1.871
458.12	1.865
458.32	1.876
458.52	1.876
458.72	1.882
458.92	1.875
459.12	1.869
459.33	1.867
459.53	1.880
459.73	1.888
459.93	1.885
460.13	1.889
460.33	1.886
460.53	1.884
460.73	1.878
460.93	1.881
461.14	1.897
461.34	1.901
461.54	1.906
461.74	1.909
461.94	1.918
462.14	1.923
462.34	1.930
462.54	1.941
462.74	1.943
462.95	1.945
463.15	1.946
463.35	1.939
463.55	1.942
463.75	1.947
463.95	1.946
464.15	1.941
464.35	1.944
464.55	1.941
464.75	1.941
464.95	1.956
465.16	1.970
465.36	1.967
465.56	1.968
465.76	1.979
465.96	1.982
466.16	1.978
466.36	1.979
466.56	1.976
466.76	1.972
466.96	1.983
467.16	1.981
467.36	1.977
467.57	1.978
467.77	1.983
467.97	1.977
468.17	1.981
468.37	1.981
468.57	1.978
468.77	1.986
468.97	1.990
469.17	1.990
469.37	1.991
469.57	1.996
469.77	2.001
469.97	1.994
470.17	1.997
470.37	1.990
470.57	1.994
470.78	1.990
470.98	1.992
471.18	1.997
471.38	1.998
471.58	2.000
471.78	2.008
471.98	2.015
472.18	2.023
472.38	2.025
472.58	2.047
472.78	2.058
472.98	2.070
473.18	2.072
473.38	2.076
473.58	2.079
473.78	2.079
473.98	2.082
474.18	2.100
474.38	2.105
474.58	2.117
474.78	2.112
474.98	2.105
475.18	2.114
475.38	2.113
475.58	2.111
475.79	2.110
475.99	2.105
476.19	2.096
476.39	2.076
476.59	2.069
476.79	2.068
476.99	2.064
477.19	2.068
477.39	2.058
477.59	2.063
477.79	2.065
477.99	2.067
478.19	2.065
478.39	2.074
478.59	2.081
478.79	2.096
478.99	2.099
479.19	2.109
479.39	2.115
479.59	2.126
479.79	2.134
479.99	2.147
480.19	2.144
480.39	2.148
480.59	2.149
480.79	2.150
480.99	2.143
481.19	2.143
481.39	2.141
481.59	2.140
481.79	2.138
481.99	2.137
482.19	2.131
482.39	2.143
482.59	2.149
482.79	2.139
482.99	2.132
483.19	2.152
483.39	2.181
483.59	2.206
483.79	2.205
483.99	2.195
484.19	2.183
484.39	2.183
484.58	2.178
484.78	2.178
484.98	2.182
485.18	2.185
485.38	2.179
485.58	2.159
485.78	2.127
485.98	2.124
486.18	2.132
486.38	2.149
486.58	2.159
486.78	2.164
486.98	2.173
487.18	2.176
487.38	2.188
487.58	2.189
487.78	2.194
487.98	2.202
488.18	2.199
488.38	2.202
488.58	2.200
488.78	2.199
488.98	2.202
489.18	2.203
489.37	2.208
489.57	2.212
489.77	2.224
489.97	2.230
490.17	2.236
490.37	2.245
490.57	2.254
490.77	2.265
490.97	2.268
491.17	2.271
491.37	2.277
491.57	2.283
491.77	2.278
491.97	2.273
492.17	2.271
492.37	2.275
492.56	2.275
492.76	2.277
492.96	2.281
493.16	2.293
493.36	2.300
493.56	2.302
493.76	2.309
493.96	2.323
494.16	2.332
494.36	2.343
494.56	2.344
494.76	2.361
494.95	2.370
495.15	2.373
495.35	2.370
495.55	2.383
495.75	2.382
495.95	2.384
496.15	2.384
496.35	2.391
496.55	2.399
496.75	2.407
496.95	2.408
497.14	2.414
497.34	2.424
497.54	2.436
497.74	2.439
497.94	2.447
498.14	2.446
498.34	2.453
498.54	2.455
498.74	2.455
498.93	2.473
499.13	2.479
499.33	2.477
499.53	2.478
499.73	2.485
499.93	2.489
500.13	2.490
500.33	2.500
500.53	2.502
500.72	2.508
500.92	2.506
501.12	2.498
501.32	2.496
501.52	2.508
501.72	2.512
501.92	2.502
502.12	2.500
502.31	2.509
502.51	2.512
502.71	2.521
502.91	2.518
503.11	2.525
503.31	2.533
503.51	2.535
503.70	2.530
503.90	2.543
504.10	2.556
504.30	2.563
504.50	2.563
504.70	2.574
504.90	2.570
505.09	2.583
505.29	2.584
505.49	2.588
505.69	2.606
505.89	2.619
506.09	2.611
506.29	2.605
506.48	2.606
506.68	2.620
506.88	2.624
507.08	2.635
507.28	2.643
507.48	2.656
507.67	2.657
507.87	2.657
508.07	2.661
508.27	2.672
508.47	2.676
508.67	2.686
508.86	2.685
509.06	2.683
509.26	2.693
509.46	2.704
509.66	2.703
509.85	2.716
510.05	2.726
510.25	2.726
510.45	2.737
510.65	2.749
510.85	2.743
511.04	2.743
511.24	2.757
511.44	2.757
511.64	2.756
511.84	2.773
512.03	2.765
512.23	2.761
512.43	2.766
512.63	2.765
512.83	2.772
513.02	2.786
513.22	2.799
513.42	2.805
513.62	2.814
513.82	2.817
514.01	2.816
514.21	2.830
514.41	2.838
514.61	2.853
514.81	2.854
515.00	2.849
515.20	2.845
515.40	2.854
515.60	2.848
515.80	2.851
515.99	2.853
516.19	2.852
516.39	2.856
516.59	2.859
516.78	2.866
516.98	2.879
517.18	2.880
517.38	2.887
517.58	2.884
517.77	2.890
517.97	2.889
518.17	2.895
518.37	2.904
518.56	2.904
518.76	2.908
518.96	2.904
519.16	2.897
519.36	2.908
519.55	2.916
519.75	2.925
519.95	2.939
520.15	2.947
520.34	2.947
520.54	2.955
520.74	2.971
520.94	2.975
521.13	2.991
521.33	2.995
521.53	3.001
521.73	3.010
521.92	3.006
522.12	3.016
522.32	3.024
522.52	3.040
522.71	3.046
522.91	3.049
523.11	3.058
523.31	3.050
523.50	3.061
523.70	3.068
523.90	3.072
524.09	3.093
524.29	3.087
524.49	3.085
524.69	3.088
524.88	3.095
525.08	3.098
525.28	3.092
525.48	3.098
525.67	3.106
525.87	3.106
526.07	3.107
526.26	3.096
526.46	3.106
526.66	3.116
526.86	3.120
527.05	3.118
527.25	3.124
527.45	3.134
527.64	3.136
527.84	3.138
528.04	3.144
528.24	3.147
528.43	3.155
528.63	3.150
528.83	3.150
529.02	3.150
529.22	3.151
529.42	3.145
529.62	3.146
529.81	3.145
530.01	3.144
530.21	3.141
530.40	3.142
530.60	3.140
530.80	3.146
530.99	3.150
531.19	3.158
531.39	3.165
531.58	3.179
531.78	3.196
531.98	3.211
532.18	3.227
532.37	3.243
532.57	3.249
532.77	3.262
532.96	3.263
533.16	3.271
533.36	3.271
533.55	3.280
533.75	3.283
533.95	3.284
534.14	3.284
534.34	3.294
534.54	3.297
534.73	3.309
534.93	3.317
535.13	3.328
535.32	3.328
535.52	3.338
535.72	3.346
535.91	3.357
536.11	3.363
536.31	3.379
536.50	3.380
536.70	3.390
536.90	3.391
537.09	3.401
537.29	3.410
537.48	3.428
537.68	3.434
537.88	3.443
538.07	3.448
538.27	3.456
538.47	3.465
538.66	3.469
538.86	3.477
539.06	3.482
539.25	3.492
539.45	3.507
539.65	3.512
539.84	3.526
540.04	3.534
540.23	3.546
540.43	3.548
540.63	3.543
540.82	3.547
541.02	3.534
541.22	3.531
541.41	3.525
541.61	3.517
541.80	3.518
542.00	3.515
542.20	3.513
542.39	3.513
542.59	3.519
542.79	3.522
542.98	3.523
543.18	3.536
543.37	3.553
543.57	3.558
543.77	3.568
543.96	3.572
544.16	3.583
544.35	3.594
544.55	3.603
544.75	3.607
544.94	3.615
545.14	3.625
545.33	3.642
545.53	3.640
545.73	3.648
545.92	3.657
546.12	3.666
546.31	3.660
546.51	3.664
546.71	3.670
546.90	3.669
547.10	3.681
547.29	3.689
547.49	3.700
547.69	3.720
547.88	3.733
548.08	3.742
548.27	3.753
548.47	3.783
548.66	3.788
548.86	3.796
549.06	3.812
549.25	3.826
549.45	3.836
549.64	3.839
549.84	3.835
550.03	3.838
550.23	3.846
550.43	3.843
550.62	3.843
550.82	3.860
551.01	3.867
551.21	3.878
551.40	3.881
551.60	3.890
551.80	3.888
551.99	3.897
552.19	3.912
552.38	3.906
552.58	3.910
552.77	3.905
552.97	3.909
553.16	3.900
553.36	3.892
553.56	3.903
553.75	3.903
553.95	3.909
554.14	3.916
554.34	3.931
554.53	3.947
554.73	3.962
554.92	3.976
555.12	3.980
555.31	4.009
555.51	4.039
555.70	4.033
555.90	4.041
556.10	4.044
556.29	4.040
556.49	4.028
556.68	4.046
556.88	4.046
557.07	4.057
557.27	4.075
557.46	4.068
557.66	4.061
557.85	4.073
558.05	4.079
558.24	4.088
558.44	4.102
558.63	4.106
558.83	4.099
559.02	4.112
559.22	4.113
559.41	4.109
559.61	4.112
559.80	4.120
560.00	4.119
560.19	4.124
560.39	4.130
560.58	4.127
560.78	4.141
560.97	4.150
561.17	4.152
561.36	4.155
561.56	4.164
561.75	4.175
561.95	4.182
562.14	4.185
562.34	4.189
562.53	4.194
562.73	4.203
562.92	4.204
563.12	4.216
563.31	4.218
563.51	4.229
563.70	4.223
563.90	4.240
564.09	4.242
564.29	4.260
564.48	4.264
564.68	4.274
564.87	4.291
565.07	4.289
565.26	4.292
565.45	4.296
565.65	4.295
565.84	4.306
566.04	4.294
566.23	4.303
566.43	4.322
566.62	4.325
566.82	4.323
567.01	4.324
567.21	4.335
567.40	4.327
567.60	4.344
567.79	4.349
567.98	4.363
568.18	4.386
568.37	4.391
568.57	4.385
568.76	4.407
568.96	4.424
569.15	4.429
569.35	4.444
569.54	4.465
569.73	4.462
569.93	4.471
570.12	4.462
570.32	4.455
570.51	4.458
570.71	4.463
570.90	4.468
571.09	4.477
571.29	4.482
571.48	4.473
571.68	4.468
571.87	4.476
572.07	4.474
572.26	4.488
572.45	4.496
572.65	4.496
572.84	4.495
573.04	4.490
573.23	4.491
573.43	4.504
573.62	4.516
573.81	4.530
574.01	4.532
574.20	4.541
574.40	4.546
574.59	4.551
574.78	4.555
574.98	4.567
575.17	4.569
575.37	4.575
575.56	4.577
575.75	4.574
575.95	4.576
576.14	4.588
576.34	4.583
576.53	4.575
576.72	4.577
576.92	4.595
577.11	4.602
577.31	4.611
577.50	4.609
577.69	4.613
577.89	4.627
578.08	4.628
578.28	4.635
578.47	4.644
578.66	4.664
578.86	4.685
579.05	4.689
579.24	4.694
579.44	4.703
579.63	4.720
579.83	4.723
580.02	4.730
580.21	4.749
580.41	4.753
580.60	4.763
580.79	4.776
580.99	4.769
581.18	4.779
581.38	4.781
581.57	4.791
581.76	4.791
581.96	4.812
582.15	4.826
582.34	4.829
582.54	4.832
582.73	4.855
582.92	4.846
583.12	4.866
583.31	4.849
583.50	4.847
583.70	4.857
583.89	4.864
584.08	4.857
584.28	4.861
584.47	4.854
584.66	4.857
584.86	4.847
585.05	4.856
585.24	4.845
585.44	4.870
585.63	4.894
585.82	4.898
586.02	4.900
586.21	4.913
586.40	4.912
586.60	4.937
586.79	4.947
586.98	4.946
587.18	4.967
587.37	4.983
587.56	4.985
587.76	4.994
587.95	5.006
588.14	5.014
588.34	5.015
588.53	5.029
588.72	5.032
588.92	5.040
589.11	5.074
589.30	5.065
589.50	5.055
589.69	5.071
589.88	5.058
590.07	5.063
590.27	5.069
590.46	5.067
590.65	5.072
590.85	5.080
591.04	5.082
591.23	5.069
591.43	5.072
591.62	5.099
591.81	5.085
592.00	5.098
592.20	5.097
592.39	5.118
592.58	5.140
592.78	5.144
592.97	5.137
593.16	5.147
593.35	5.160
593.55	5.168
593.74	5.160
593.93	5.176
594.13	5.167
594.32	5.171
594.51	5.178
594.70	5.175
594.90	5.163
595.09	5.161
595.28	5.155
595.47	5.172
595.67	5.186
595.86	5.204
596.05	5.213
596.24	5.248
596.44	5.243
596.63	5.225
596.82	5.214
597.02	5.215
597.21	5.227
597.40	5.245
597.59	5.231
597.79	5.216
597.98	5.208
598.17	5.208
598.36	5.192
598.56	5.220
598.75	5.222
598.94	5.245
599.13	5.274
599.32	5.296
599.52	5.287
599.71	5.318
599.90	5.336
600.09	5.357
600.29	5.362
600.48	5.369
600.67	5.347
600.86	5.363
601.06	5.358
601.25	5.368
601.44	5.363
601.63	5.385
601.82	5.375
602.02	5.398
602.21	5.386
602.40	5.413
602.59	5.424
602.79	5.444
602.98	5.455
603.17	5.456
603.36	5.463
603.55	5.461
603.75	5.446
603.94	5.448
604.13	5.436
604.32	5.442
604.51	5.420
604.71	5.417
604.90	5.410
605.09	5.410
605.28	5.411
605.47	5.406
605.67	5.413
605.86	5.424
606.05	5.429
606.24	5.432
606.43	5.448
606.63	5.472
606.82	5.478
607.01	5.492
607.20	5.497
607.39	5.519
607.59	5.522
607.78	5.546
607.97	5.556
608.16	5.550
608.35	5.570
608.54	5.567
608.74	5.551
608.93	5.571
609.12	5.572
609.31	5.585
609.50	5.577
609.69	5.589
609.89	5.576
610.08	5.584
610.27	5.600
610.46	5.607
610.65	5.613
610.84	5.622
611.04	5.615
611.23	5.622
611.42	5.629
611.61	5.636
611.80	5.637
611.99	5.647
612.19	5.646
612.38	5.656
612.57	5.652
612.76	5.656
612.95	5.672
613.14	5.696
613.33	5.707
613.53	5.722
613.72	5.743
613.91	5.759
614.10	5.774
614.29	5.775
614.48	5.786
614.67	5.812
614.86	5.825
615.06	5.834
615.25	5.829
615.44	5.842
615.63	5.829
615.82	5.832
616.01	5.825
616.20	5.825
616.39	5.845
616.59	5.836
616.78	5.822
616.97	5.841
617.16	5.840
617.35	5.858
617.54	5.852
617.73	5.888
617.92	5.892
618.12	5.893
618.31	5.887
618.50	5.893
618.69	5.900
618.88	5.916
619.07	5.900
619.26	5.908
619.45	5.918
619.64	5.924
619.83	5.912
620.03	5.926
620.22	5.931
620.41	5.951
620.60	5.954
620.79	5.982
620.98	5.968
621.17	5.993
621.36	6.004
621.55	6.008
621.74	6.021
621.93	6.028
622.12	6.024
622.32	6.041
622.51	6.040
622.70	6.049
622.89	6.028
623.08	6.058
623.27	6.069
623.46	6.066
623.65	6.074
623.84	6.077
624.03	6.090
624.22	6.101
624.41	6.096
624.60	6.111
624.79	6.117
624.99	6.130
625.18	6.109
625.37	6.110
625.56	6.123
625.75	6.119
625.94	6.130
626.13	6.118
626.32	6.110
626.51	6.133
626.70	6.131
626.89	6.132
627.08	6.143
627.27	6.163
627.46	6.144
627.65	6.145
627.84	6.149
628.03	6.144
628.22	6.143
628.41	6.154
628.60	6.146
628.79	6.168
628.98	6.172
629.17	6.160
629.37	6.172
629.56	6.179
629.75	6.203
629.94	6.224
630.13	6.237
630.32	6.252
630.51	6.261
630.70	6.280
630.89	6.272
631.08	6.289
631.27	6.305
631.46	6.319
631.65	6.345
631.84	6.332
632.03	6.306
632.22	6.307
632.41	6.314
632.60	6.319
632.79	6.327
632.98	6.329
633.17	6.336
633.36	6.350
633.55	6.341
633.74	6.343
633.93	6.361
634.12	6.367
634.31	6.368
634.50	6.396
634.69	6.405
634.88	6.403
635.07	6.406
635.26	6.393
635.45	6.387
635.64	6.398
635.83	6.403
636.02	6.401
636.21	6.422
636.40	6.439
636.59	6.420
636.78	6.424
636.96	6.436
637.15	6.435
637.34	6.447
637.53	6.455
637.72	6.465
637.91	6.464
638.10	6.459
638.29	6.488
638.48	6.501
638.67	6.495
638.86	6.495
639.05	6.494
639.24	6.498
639.43	6.520
639.62	6.523
639.81	6.526
640.00	6.539
640.19	6.562
640.38	6.555
640.57	6.551
640.76	6.566
640.95	6.587
641.14	6.599
641.32	6.627
641.51	6.632
641.70	6.647
641.89	6.659
642.08	6.673
642.27	6.674
642.46	6.687
642.65	6.668
642.84	6.689
643.03	6.699
643.22	6.704
643.41	6.721
643.60	6.731
643.79	6.761
643.98	6.754
644.16	6.754
644.35	6.751
644.54	6.751
644.73	6.792
644.92	6.805
645.11	6.786
645.30	6.787
645.49	6.782
645.68	6.757
645.87	6.745
646.06	6.757
646.24	6.758
646.43	6.768
646.62	6.756
646.81	6.763
647.00	6.758
647.19	6.792
647.38	6.802
647.57	6.795
647.76	6.829
647.95	6.829
648.13	6.824
648.32	6.837
648.51	6.856
648.70	6.862
648.89	6.859
649.08	6.866
649.27	6.870
649.46	6.865
649.65	6.865
649.83	6.874
650.02	6.873
650.21	6.911
650.40	6.907
650.59	6.899
650.78	6.906
650.97	6.904
651.16	6.899
651.34	6.904
651.53	6.914
651.72	6.932
651.91	6.907
652.10	6.920
652.29	6.901
652.48	6.924
652.66	6.931
652.85	6.957
653.04	6.982
653.23	6.980
653.42	6.983
653.61	6.988
653.80	6.965
653.98	6.979
654.17	6.974
654.36	6.987
654.55	6.982
654.74	6.996
654.93	6.997
655.11	6.996
655.30	7.019
655.49	7.027
655.68	7.046
655.87	7.086
656.06	7.111
656.24	7.128
656.43	7.143
656.62	7.157
656.81	7.153
657.00	7.150
657.19	7.149
657.37	7.149
657.56	7.163
657.75	7.105
657.94	7.107
658.13	7.105
658.31	7.103
658.50	7.086
658.69	7.086
658.88	7.105
659.07	7.113
659.26	7.126
659.44	7.118
659.63	7.091
659.82	7.149
660.01	7.159
660.20	7.157
660.38	7.181
660.57	7.202
660.76	7.204
660.95	7.216
661.14	7.228
661.32	7.223
661.51	7.239
661.70	7.283
661.89	7.275
662.08	7.286
662.26	7.297
662.45	7.272
662.64	7.270
662.83	7.292
663.01	7.282
663.20	7.291
663.39	7.311
663.58	7.314
663.77	7.295
663.95	7.328
664.14	7.345
664.33	7.371
664.52	7.400
664.70	7.428
664.89	7.435
665.08	7.443
665.27	7.440
665.45	7.445
665.64	7.468
665.83	7.478
666.02	7.452
666.20	7.435
666.39	7.396
666.58	7.422
666.77	7.399
666.95	7.401
667.14	7.424
667.33	7.438
667.52	7.446
667.70	7.455
667.89	7.440
668.08	7.470
668.27	7.478
668.45	7.522
668.64	7.513
668.83	7.529
669.02	7.508
669.20	7.500
669.39	7.500
669.58	7.505
669.77	7.501
669.95	7.516
670.14	7.497
670.33	7.505
670.51	7.519
670.70	7.514
670.89	7.527
671.08	7.555
671.26	7.580
671.45	7.580
671.64	7.575
671.82	7.587
672.01	7.603
672.20	7.607
672.39	7.614
672.57	7.598
672.76	7.600
672.95	7.600
673.13	7.612
673.32	7.593
673.51	7.614
673.70	7.617
673.88	7.624
674.07	7.640
674.26	7.656
674.44	7.664
674.63	7.679
674.82	7.713
675.00	7.706
675.19	7.703
675.38	7.733
675.56	7.733
675.75	7.742
675.94	7.747
676.12	7.738
676.31	7.752
676.50	7.743
676.69	7.749
676.87	7.753
677.06	7.777
677.25	7.777
677.43	7.768
677.62	7.772
677.81	7.797
677.99	7.812
678.18	7.832
678.37	7.842
678.55	7.860
678.74	7.853
678.93	7.853
679.11	7.859
679.30	7.863
679.48	7.868
679.67	7.864
679.86	7.862
680.04	7.864
680.23	7.841
680.42	7.843
680.60	7.842
680.79	7.865
680.98	7.876
681.16	7.865
681.35	7.889
681.54	7.876
681.72	7.881
681.91	7.883
682.10	7.900
682.28	7.937
682.47	7.954
682.65	7.971
682.84	7.956
683.03	7.933
683.21	7.947
683.40	7.937
683.59	7.958
683.77	7.971
683.96	7.978
684.14	7.979
684.33	7.967
684.52	7.971
684.70	7.962
684.89	7.984
685.07	8.001
685.26	8.011
685.45	8.021
685.63	8.013
685.82	8.037
686.00	8.062
686.19	8.060
686.38	8.076
686.56	8.083
686.75	8.119
686.93	8.117
687.12	8.109
687.31	8.121
687.49	8.133
687.68	8.153
687.86	8.135
688.05	8.122
688.24	8.144
688.42	8.149
688.61	8.142
688.79	8.123
688.98	8.138
689.17	8.150
689.35	8.152
689.54	8.156
689.72	8.151
689.91	8.161
690.09	8.154
690.28	8.141
690.47	8.131
690.65	8.146
690.84	8.156
691.02	8.171
691.21	8.192
691.39	8.208
691.58	8.230
691.76	8.244
691.95	8.268
692.14	8.309
692.32	8.300
692.51	8.342
692.69	8.362
692.88	8.361
693.06	8.343
693.25	8.356
693.43	8.353
693.62	8.358
693.81	8.369
693.99	8.374
694.18	8.357
694.36	8.359
694.55	8.335
694.73	8.323
694.92	8.352
695.10	8.332
695.29	8.334
695.47	8.327
695.66	8.321
695.84	8.330
696.03	8.339
696.21	8.337
696.40	8.372
696.59	8.395
696.77	8.378
696.96	8.369
697.14	8.417
697.33	8.463
697.51	8.484
697.70	8.509
697.88	8.531
698.07	8.506
698.25	8.511
698.44	8.512
698.62	8.500
698.81	8.508
698.99	8.524
699.18	8.528
699.36	8.498
699.55	8.499
699.73	8.469
699.92	8.455
700.10	8.461
700.29	8.469
700.47	8.460
700.66	8.464
700.84	8.484
701.03	8.459
701.21	8.452
701.40	8.454
701.58	8.458
701.77	8.478
701.95	8.539
702.13	8.536
702.32	8.559
702.50	8.602
702.69	8.622
702.87	8.616
703.06	8.672
703.24	8.677
703.43	8.689
703.61	8.690
703.80	8.694
703.98	8.609
704.17	8.667
704.35	8.650
704.54	8.656
704.72	8.647
704.90	8.655
705.09	8.644
705.27	8.686
705.46	8.701
705.64	8.666
705.83	8.660
706.01	8.702
706.20	8.719
706.38	8.744
706.56	8.723
706.75	8.767
706.93	8.785
707.12	8.812
707.30	8.807
707.49	8.820
707.67	8.855
707.86	8.894
708.04	8.941
708.22	8.901
708.41	8.898
708.59	8.909
708.78	8.883
708.96	8.886
709.14	8.879
709.33	8.906
709.51	8.909
709.70	8.938
709.88	8.937
710.07	8.918
710.25	8.961
710.43	8.981
710.62	9.014
710.80	9.017
710.99	9.055
711.17	9.051
711.35	9.038
711.54	9.039
711.72	9.053
711.91	9.097
712.09	9.091
712.27	9.068
712.46	9.087
712.64	9.070
712.83	9.082
713.01	9.066
713.19	9.053
713.38	9.052
713.56	9.073
713.75	9.069
713.93	9.077
714.11	9.085
714.30	9.102
714.48	9.099
714.66	9.110
714.85	9.139
715.03	9.165
715.22	9.160
715.40	9.187
715.58	9.191
715.77	9.205
715.95	9.198
716.13	9.222
716.32	9.213
716.50	9.188
716.68	9.176
716.87	9.172
717.05	9.153
717.24	9.194
717.42	9.173
717.60	9.171
717.79	9.194
717.97	9.171
718.15	9.152
718.34	9.186
718.52	9.227
718.70	9.257
718.89	9.242
719.07	9.208
719.25	9.242
719.44	9.278
719.62	9.284
719.80	9.268
719.99	9.248
720.17	9.271
720.35	9.275
720.54	9.244
720.72	9.241
720.90	9.264
721.09	9.339
721.27	9.322
721.45	9.311
721.64	9.306
721.82	9.318
722.00	9.353
722.19	9.363
722.37	9.384
722.55	9.443
722.74	9.471
722.92	9.517
723.10	9.494
723.28	9.533
723.47	9.551
723.65	9.612
723.83	9.622
724.02	9.614
724.20	9.633
724.38	9.617
724.57	9.603
724.75	9.626
724.93	9.611
725.11	9.615
725.30	9.583
725.48	9.600
725.66	9.563
725.85	9.555
726.03	9.557
726.21	9.585
726.39	9.587
726.58	9.615
726.76	9.601
726.94	9.614
727.13	9.626
727.31	9.621
727.49	9.657
727.67	9.676
727.86	9.702
728.04	9.772
728.22	9.711
728.40	9.736
728.59	9.693
728.77	9.696
728.95	9.724
729.13	9.742
729.32	9.790
729.50	9.772
729.68	9.790
729.86	9.793
730.05	9.786
730.23	9.846
730.41	9.851
730.59	9.865
730.78	9.879
730.96	9.865
731.14	9.885
731.32	9.899
731.51	9.893
731.69	9.890
731.87	9.880
732.05	9.872
732.24	9.869
732.42	9.856
732.60	9.869
732.78	9.872
732.97	9.846
733.15	9.832
733.33	9.831
733.51	9.829
733.69	9.827
733.88	9.837
734.06	9.841
734.24	9.821
734.42	9.873
734.60	9.913
734.79	9.914
734.97	9.979
735.15	9.992
735.33	10.013
735.52	10.024
735.70	10.027
735.88	10.016
736.06	10.046
736.24	10.083
736.43	10.041
736.61	10.039
736.79	10.074
736.97	10.051
737.15	10.025
737.34	9.976
737.52	9.984
737.70	10.036
737.88	10.115
738.06	10.078
738.24	10.117
738.43	10.140
738.61	10.150
738.79	10.129
738.97	10.129
739.15	10.164
739.33	10.178
739.52	10.158
739.70	10.115
739.88	10.093
740.06	10.105
740.24	10.072
740.42	10.063
740.61	10.077
740.79	10.142
740.97	10.146
741.15	10.196
741.33	10.243
741.51	10.295
741.70	10.328
741.88	10.348
742.06	10.382
742.24	10.447
742.42	10.467
742.60	10.475
742.78	10.437
742.97	10.442
743.15	10.402
743.33	10.423
743.51	10.403
743.69	10.407
743.87	10.390
744.05	10.433
744.24	10.430
744.42	10.471
744.60	10.422
744.78	10.457
744.96	10.488
745.14	10.586
745.32	10.591
745.50	10.610
745.69	10.598
745.87	10.631
746.05	10.599
746.23	10.552
746.41	10.525
746.59	10.587
746.77	10.553
746.95	10.522
747.13	10.416
747.32	10.407
747.50	10.465
747.68	10.501
747.86	10.521
748.04	10.546
748.22	10.572
748.40	10.632
748.58	10.630
748.76	10.646
748.94	10.704
749.13	10.791
749.31	10.772
749.49	10.783
749.67	10.802
749.85	10.768
750.03	10.753
750.21	10.760
750.39	10.739
750.57	10.754
750.75	10.762
750.93	10.749
751.11	10.707
751.30	10.704
751.48	10.709
751.66	10.698
751.84	10.751
752.02	10.771
752.20	10.806
752.38	10.788
752.56	10.792
752.74	10.771
752.92	10.784
753.10	10.823
753.28	10.892
753.46	10.874
753.64	10.842
753.82	10.853
754.00	10.869
754.18	10.865
754.37	10.886
754.55	10.900
754.73	10.900
754.91	10.891
755.09	10.841
755.27	10.799
755.45	10.772
755.63	10.835
755.81	10.822
755.99	10.824
756.17	10.828
756.35	10.841
756.53	10.861
756.71	10.907
756.89	10.899
757.07	10.932
757.25	10.968
757.43	10.975
757.61	10.963
757.79	10.944
757.97	10.898
758.15	10.892
758.33	10.923
758.51	10.897
758.69	10.924
758.87	10.951
759.05	10.974
759.23	10.950
759.41	11.014
759.59	11.051
759.77	11.058
759.95	11.090
760.13	11.122
760.31	11.110
760.49	11.167
760.67	11.218
760.85	11.211
761.03	11.263
761.21	11.321
761.39	11.310
761.57	11.353
761.75	11.404
761.93	11.441
762.11	11.436
762.29	11.405
762.47	11.426
762.65	11.346
762.83	11.357
763.01	11.319
763.19	11.331
763.37	11.374
763.55	11.371
763.73	11.378
763.91	11.419
764.09	11.443
764.27	11.479
764.45	11.455
764.63	11.480
764.81	11.481
764.99	11.508
765.16	11.490
765.34	11.461
765.52	11.434
765.70	11.422
765.88	11.387
766.06	11.358
766.24	11.362
766.42	11.373
766.60	11.392
766.78	11.383
766.96	11.386
767.14	11.392
767.32	11.403
767.50	11.383
767.68	11.390
767.86	11.415
768.03	11.468
768.21	11.490
768.39	11.435
768.57	11.400
768.75	11.463
768.93	11.445
769.11	11.478
769.29	11.509
769.47	11.518
769.65	11.543
769.83	11.548
770.01	11.568
770.19	11.534
770.36	11.606
770.54	11.650
770.72	11.658
770.90	11.667
771.08	11.730
771.26	11.715
771.44	11.761
771.62	11.781
771.80	11.768
771.98	11.741
772.15	11.785
772.33	11.803
772.51	11.833
772.69	11.812
772.87	11.864
773.05	11.731
773.23	11.763
773.41	11.840
773.58	11.853
773.76	11.919
773.94	11.883
774.12	11.867
774.30	11.853
774.48	11.810
774.66	11.792
774.84	11.707
775.01	11.799
775.19	11.808
775.37	11.800
775.55	11.719
775.73	11.673
775.91	11.703
776.09	11.736
776.26	11.699
776.44	11.719
776.62	11.812
776.80	11.791
776.98	11.799
777.16	11.817
777.34	11.809
777.51	11.884
777.69	11.946
777.87	11.972
778.05	11.930
778.23	12.019
778.41	12.040
778.58	11.981
778.76	12.056
778.94	12.087
779.12	12.116
779.30	12.100
779.48	12.155
779.65	12.091
779.83	12.066
780.01	12.095
780.19	12.108
780.37	12.138
780.55	12.186
780.72	12.227
780.90	12.167
781.08	12.166
781.26	12.242
781.44	12.228
781.61	12.282
781.79	12.385
781.97	12.418
782.15	12.424
782.33	12.424
782.50	12.379
782.68	12.386
782.86	12.408
783.04	12.365
783.22	12.387
783.39	12.345
783.57	12.327
783.75	12.252
783.93	12.272
784.11	12.211
784.28	12.049
784.46	12.044
784.64	12.084
784.82	12.106
784.99	12.148
785.17	12.104
785.35	12.211
785.53	12.278
785.71	12.304
785.88	12.314
786.06	12.386
786.24	12.519
786.42	12.596
786.59	12.468
786.77	12.453
786.95	12.483
787.13	12.482
787.30	12.446
787.48	12.420
787.66	12.455
787.84	12.462
788.01	12.499
788.19	12.549
788.37	12.585
788.55	12.682
788.72	12.775
788.90	12.712
789.08	12.698
789.26	12.606
789.43	12.611
789.61	12.604
789.79	12.583
789.97	12.600
790.14	12.652
790.32	12.628
790.50	12.617
790.68	12.525
790.85	12.547
791.03	12.584
791.21	12.664
791.38	12.610
791.56	12.606
791.74	12.678
791.92	12.618
792.09	12.605
792.27	12.660
792.45	12.689
792.62	12.686
792.80	12.660
792.98	12.549
793.16	12.610
793.33	12.611
793.51	12.641
793.69	12.578
793.86	12.531
794.04	12.425
794.22	12.331
794.39	12.335
794.57	12.485
794.75	12.500
794.93	12.668
795.10	12.557
795.28	12.654
795.46	12.669
795.63	12.658
795.81	12.815
795.99	12.910
796.16	12.969
796.34	13.104
796.52	12.977
796.69	13.061
796.87	13.016
797.05	13.130
797.22	13.128
797.40	13.139
797.58	13.091
797.75	13.072
797.93	13.076
798.11	13.149
798.28	13.066
798.46	13.089
798.64	13.081
798.81	13.156
798.99	13.095
799.17	13.139
799.34	13.039
799.52	13.182
799.70	13.148
799.87	13.242
800.05	13.137
800.22	13.065
800.40	13.092
800.58	13.125
800.75	13.056
800.93	13.138
801.11	13.147
801.28	13.356
801.46	13.212
801.63	13.309
801.81	13.210
801.99	13.345
802.16	13.409
802.34	13.554
802.52	13.500
802.69	13.539
802.87	13.536
803.04	13.515
803.22	13.427
803.40	13.510
803.57	13.429
803.75	13.385
803.93	13.323
804.10	13.354
804.28	13.317
804.45	13.357
804.63	13.386
804.81	13.367
804.98	13.464
805.16	13.580
805.33	13.714
805.51	13.814
805.68	13.951
805.86	13.992
806.04	13.967
806.21	13.909
806.39	13.973
806.56	13.917
806.74	13.875
806.92	13.819
807.09	13.666
807.27	13.584
807.44	13.531
807.62	13.495
807.79	13.488
807.97	13.528
808.15	13.496
808.32	13.485
808.50	13.436
808.67	13.558
808.85	13.505
809.02	13.584
809.20	13.532
809.38	13.605
809.55	13.616
809.73	13.703
809.90	13.752
810.08	13.858
810.25	13.864
810.43	14.019
810.60	14.018
810.78	14.142
810.95	14.090
811.13	14.153
811.31	14.011
811.48	14.061
811.66	13.961
811.83	13.852
812.01	13.861
812.18	13.791
812.36	13.649
812.53	13.533
812.71	13.578
812.88	13.704
813.06	13.713
813.23	13.838
813.41	13.914
813.58	14.031
813.76	14.161
813.93	14.097
814.11	14.127
814.28	14.306
814.46	14.446
814.63	14.384
814.81	14.395
814.98	14.402
815.16	14.447
815.33	14.234
815.51	14.135
815.68	14.055
815.86	14.122
816.03	14.197
816.21	14.150
816.38	14.023
816.56	13.978
816.73	14.057
816.91	14.135
817.08	14.017
817.26	14.128
817.43	14.192
817.61	14.257
817.78	14.222
817.96	14.117
818.13	14.027
818.31	14.049
818.48	14.184
818.66	14.180
818.83	14.209
819.01	14.135
819.18	14.215
819.36	14.182
819.53	14.141
819.70	14.075
819.88	14.300
820.05	14.395
820.23	14.523
820.40	14.451
820.58	14.390
820.75	14.387
820.93	14.451
821.10	14.492
821.28	14.609
821.45	14.689
821.62	14.812
821.80	14.762
821.97	14.858
822.15	14.913
822.32	15.009
822.50	15.109
822.67	15.333
822.84	15.425
823.02	15.373
823.19	15.286
823.37	15.176
823.54	15.077
823.72	14.976
823.89	14.863
824.06	14.795
824.24	14.752
824.41	14.696
824.59	14.604
824.76	14.539
824.94	14.483
825.11	14.427
825.28	14.381
825.46	14.338
825.63	14.349
825.81	14.396
825.98	14.418
826.15	14.431
826.33	14.450
826.50	14.482
826.68	14.499
826.85	14.507
827.02	14.527
827.20	14.652
827.37	14.757
827.54	14.859
827.72	14.977
827.89	15.086
828.07	15.104
828.24	15.189
828.41	15.197
828.59	15.153
828.76	15.154
828.94	15.132
829.11	15.064
829.28	15.054
829.46	14.995
829.63	14.924
829.80	14.859
829.98	14.815
830.15	14.738
830.32	14.721
830.50	14.748
830.67	14.745
830.85	14.805
831.02	14.832
831.19	14.804
831.37	14.802
831.54	14.837
831.71	14.831
831.89	14.947
832.06	14.984
832.23	15.008
832.41	15.117
832.58	15.209
832.75	15.194
832.93	15.214
833.10	15.251
833.27	15.289
833.45	15.355
833.62	15.458
833.79	15.473
833.97	15.520
834.14	15.635
834.31	15.620
834.49	15.719
834.66	15.724
834.83	15.821
835.01	15.782
835.18	15.768
835.35	15.685
835.52	15.630
835.70	15.574
835.87	15.532
836.04	15.466
836.22	15.402
836.39	15.301
836.56	15.218
836.74	15.146
836.91	15.113
837.08	15.029
837.25	15.014
837.43	15.024
837.60	15.035
837.77	15.031
837.95	15.002
838.12	15.064
838.29	15.038
838.46	15.171
838.64	15.204
838.81	15.099
838.98	15.254
839.16	15.259
839.33	15.207
839.50	15.165
839.67	15.347
839.85	15.359
840.02	15.426
840.19	15.510
840.36	15.607
840.54	15.516
840.71	15.778
840.88	15.668
841.06	15.832
841.23	15.899
841.40	15.876
841.57	15.733
841.75	15.825
841.92	15.733
842.09	15.771
842.26	15.620
842.44	15.594
842.61	15.565
842.78	15.595
842.95	15.627
843.12	15.480
843.30	15.497
843.47	15.567
843.64	15.487
843.81	15.752
843.99	15.660
844.16	15.860
844.33	15.955
844.50	15.972
844.68	16.049
844.85	15.893
845.02	16.358
845.19	16.392
845.36	16.315
845.54	16.496
845.71	16.167
845.88	16.113
846.05	15.866
846.22	15.736
846.40	15.647
846.57	15.529
846.74	15.315
846.91	15.018
847.08	15.060
847.26	15.222
847.43	15.378
847.60	15.558
847.77	15.599
847.94	15.683
848.12	15.982
848.29	16.129
848.46	16.325
848.63	16.659
848.80	16.645
848.98	16.777
849.15	16.693
849.32	16.368
849.49	16.088
849.66	16.418
849.83	16.495
850.01	16.436
850.18	16.316
850.35	16.108
850.52	16.120
850.69	15.977
850.86	15.908
851.04	15.910
851.21	16.059
851.38	16.056
851.55	15.765
851.72	15.260
851.89	14.936
852.06	15.170
852.24	15.267
852.41	15.432
852.58	15.697
852.75	15.869
852.92	15.718
853.09	15.825
853.26	16.178
853.44	16.423
853.61	16.858
853.78	16.762
853.95	16.619
854.12	16.460
854.29	16.607
854.46	16.543
854.64	16.384
854.81	16.815
854.98	16.746
855.15	16.584
855.32	16.425
855.49	16.538
855.66	16.609
855.83	16.658
856.00	16.757
856.18	16.643
856.35	16.427
856.52	16.440
856.69	16.261
856.86	16.240
857.03	16.291
857.20	16.217
857.37	16.176
857.54	16.462
857.71	16.262
857.89	16.419
858.06	16.280
858.23	16.286
858.40	16.292
858.57	16.153
858.74	15.965
858.91	16.069
859.08	16.307
859.25	16.275
859.42	16.202
859.59	16.520
859.76	16.361
859.94	16.592
860.11	16.810
860.28	16.661
860.45	16.859
860.62	17.061
860.79	16.852
860.96	16.853
861.13	16.515
861.30	16.344
861.47	16.311
861.64	16.558
861.81	16.071
861.98	15.960
862.15	16.112
862.32	16.114
862.49	15.932
862.66	16.303
862.83	16.076
863.01	16.865
863.18	16.880
863.35	16.570
863.52	17.033
863.69	16.989
863.86	16.927
864.03	16.802
864.20	16.718
864.37	16.767
864.54	16.708
864.71	17.104
864.88	16.565
865.05	16.948
865.22	17.250
865.39	16.755
865.56	17.236
865.73	17.438
865.90	17.551
866.07	17.623
866.24	17.734
866.41	17.748
866.58	17.476
866.75	17.689
866.92	17.687
867.09	17.340
867.26	17.505
867.43	17.398
867.60	17.581
867.77	17.739
867.94	17.658
868.11	17.822
868.28	17.889
868.45	17.894
868.62	17.865
868.79	17.496
868.96	17.625
869.13	17.430
869.30	17.412
869.47	17.340
869.64	17.236
869.81	17.208
869.98	17.247
870.15	17.293
870.32	17.054
870.49	16.676
870.66	16.999
870.83	17.116
871.00	17.305
871.16	17.404
871.33	17.104
871.50	17.018
871.67	17.182
871.84	16.969
872.01	16.804
872.18	17.051
872.35	17.732
872.52	17.644
872.69	17.526
872.86	17.522
873.03	17.353
873.20	17.723
873.37	17.624
873.54	17.555
873.71	17.394
873.88	17.339
874.05	17.571
874.21	17.379
874.38	17.262
874.55	17.413
874.72	17.104
874.89	17.150
875.06	16.977
875.23	17.426
875.40	17.532
875.57	17.762
875.74	17.773
875.91	17.615
876.08	17.442
876.24	17.586
876.41	17.383
876.58	17.647
876.75	17.646
876.92	17.693
877.09	17.631
877.26	17.666
877.43	17.444
877.60	17.764
877.77	18.032
877.93	18.310
878.10	18.385
878.27	18.588
878.44	18.614
878.61	18.788
878.78	18.738
878.95	18.558
879.12	18.511
879.28	18.674
879.45	18.449
879.62	18.341
879.79	18.008
879.96	18.246
880.13	18.196
880.30	18.280
880.47	18.126
880.63	18.100
880.80	18.321
880.97	18.298
881.14	18.411
881.31	18.537
881.48	18.506
881.65	18.863
881.81	18.886
881.98	19.153
882.15	19.243
882.32	19.360
882.49	19.398
882.66	19.371
882.82	19.264
882.99	19.139
883.16	19.032
883.33	18.938
883.50	18.829
883.67	18.764
883.83	18.696
884.00	18.611
884.17	18.513
884.34	18.446
884.51	18.359
884.68	18.306
884.84	18.270
885.01	18.231
885.18	18.249
885.35	18.231
885.52	18.191
885.68	18.154
885.85	18.139
886.02	18.568
886.19	17.733
886.36	17.884
886.53	18.396
886.69	18.010
>>>>>End Spectral Data<<<<<
